238
248
253
262
271
280
284
292
303
311
318
325
336
346
352
359
368
377
381
383
388
389
387
385
383
382
365
353
341
328
308
288
270
253
234
210
192
176
163
144
127
114
102
86
75
67
58
50
39
37
36
25
20
17
16
16
12
11
13
12
8
8
11
12
11
8
13
15
14
11
14
14
12
9
9
11
11
9
10
10
8
3
3
3
2
1
-2
2
-2
-4
-8
-6
-8
-9
-11
-12
-13
-16
-18
-18
-17
-17
-19
-18
-18
-19
-20
-21
-19
-20
-21
-23
-21
-19
-23
-23
-21
-22
-22
-24
-22
-20
-21
-23
-22
-21
-21
-23
-24
-21
-24
-24
-25
-23
-24
-26
-25
-23
-22
-24
-21
-12
12
85
178
158
90
66
53
42
39
1
-44
-103
-174
-253
-331
-396
-446
-490
-522
-551
-574
-592
-602
-609
-611
-611
-614
-614
-611
-608
-603
-588
-556
-544
-473
-419
-346
-275
-208
-147
-82
-30
15
55
93
125
144
154
164
178
187
195
200
209
218
223
225
236
240
251
255
263
273
282
289
296
307
312
318
329
340
345
350
358
370
374
377
380
384
385
385
382
382
380
366
355
342
329
311
290
273
259
239
216
196
178
158
139
123
111
99
87
77
69
61
52
44
39
39
30
22
21
22
19
15
15
15
14
11
11
13
12
10
10
13
13
11
9
12
12
12
13
14
17
15
11
10
13
12
9
8
8
8
3
1
3
3
-1
-2
-2
-3
-6
-8
-8
-8
-10
-11
-12
-11
-12
-15
-14
-13
-14
-16
-17
-14
-14
-19
-19
-15
-17
-20
-20
-18
-17
-19
-20
-16
-17
-18
-21
-20
-19
-20
-22
-22
-19
-21
-25
-22
-21
-20
-24
-24
-23
-22
-22
-24
-21
-20
-18
-12
14
89
159
126
74
65
50
37
26
3
-38
-98
-164
-229
-303
-371
-423
-465
-495
-524
-554
-576
-589
-600
-608
-609
-609
-613
-615
-612
-611
-602
-592
-566
-534
-496
-449
-382
-310
-243
-179
-110
-54
-6
35
75
109
135
149
158
172
181
188
192
205
208
218
221
231
240
249
253
263
270
278
285
293
303
312
317
327
340
347
351
360
368
376
381
383
389
392
393
391
390
387
382
372
363
353
341
324
307
292
274
253
236
219
202
183
164
148
132
117
100
89
85
68
57
51
45
40
31
27
26
24
17
14
17
17
14
12
16
14
13
11
15
16
13
10
14
15
16
16
19
23
23
21
22
24
24
20
20
22
20
14
13
10
7
0
-4
-4
-7
-11
-16
-18
-16
-15
-16
-14
-15
-19
-20
-22
-19
-20
-24
-22
-22
-22
-24
-25
-23
-24
-28
-28
-25
-26
-27
-29
-27
-25
-28
-29
-29
-28
-27
-29
-28
-27
-27
-29
-30
-27
-26
-28
-29
-26
-25
-28
-28
-25
-21
-22
-21
-6
2
139
152
93
63
50
37
29
15
-17
-66
-127
-194
-262
-339
-403
-446
-478
-503
-520
-540
-563
-584
-591
-596
-598
-609
-614
-614
-610
-606
-600
-583
-562
-534
-506
-464
-412
-351
-288
-228
-163
-100
-49
-6
39
76
109
136
157
162
179
187
203
215
223
231
242
255
264
273
281
296
307
315
328
340
348
357
369
383
390
398
403
413
416
421
425
425
429
428
420
418
411
403
391
379
366
352
334
317
303
284
261
243
226
208
190
173
157
152
127
113
102
93
82
71
63
57
50
41
35
35
29
23
21
20
17
13
8
9
9
7
3
6
6
6
3
2
6
5
3
5
7
6
4
6
9
9
7
6
9
9
6
6
9
8
7
4
4
7
3
-1
-1
1
1
-5
-5
-3
-4
-7
-8
-7
-7
-10
-7
-4
-2
-3
-5
-1
-2
-5
-6
-4
-6
-4
-10
-11
-15
-19
-23
-22
-24
-26
-31
-33
-30
-31
-29
-27
-25
-26
-29
-30
-27
-27
-28
-29
-27
-28
-27
-30
-29
-26
-24
-24
-14
27
128
191
137
80
65
52
45
41
30
6
-32
-78
-135
-199
-262
-327
-344
-420
-453
-478
-508
-543
-571
-585
-593
-601
-612
-614
-615
-615
-617
-613
-599
-579
-554
-518
-474
-427
-371
-308
-244
-224
-129
-75
-26
18
53
87
121
146
161
171
183
195
204
211
223
236
243
253
260
271
285
294
301
313
317
337
344
356
367
378
385
392
401
407
408
410
414
414
412
405
404
394
383
370
356
344
324
307
291
287
254
233
215
201
181
164
151
136
120
105
94
86
75
64
56
51
44
35
28
26
21
17
10
11
12
6
3
3
2
1
-3
-4
-3
-4
-8
-8
-5
-6
-7
-6
-4
-4
-5
-4
-3
-2
-4
-4
-1
0
-3
-4
-3
-1
-3
-5
-3
-2
-4
-7
-7
-8
-8
-10
-11
-10
-10
-12
-13
-13
-14
-15
-17
-17
-14
-19
-22
-20
-20
-24
-23
-24
-22
-21
-25
-26
-24
-24
-29
-29
-25
-28
-30
-32
-30
-28
-30
-34
-31
-30
-30
-34
-32
-31
-33
-35
-31
-28
-27
-29
-28
-23
-22
-24
-23
-20
-20
-20
-22
-19
-18
-11
18
105
138
139
75
55
43
31
20
7
-14
-47
-101
-163
-226
-291
-358
-407
-446
-484
-515
-546
-573
-595
-607
-614
-617
-618
-623
-628
-624
-624
-621
-618
-605
-583
-555
-526
-489
-446
-392
-332
-273
-216
-161
-111
-62
-16
24
57
88
116
124
147
157
169
182
189
196
204
215
224
231
239
251
257
265
274
285
292
301
311
322
329
338
342
353
356
368
372
380
384
386
387
389
390
387
379
373
368
359
348
335
324
308
293
276
263
244
224
206
193
188
161
143
133
121
107
92
83
74
66
53
47
42
35
25
20
17
15
8
4
5
2
-2
-5
-4
-3
-4
-7
-7
-6
-7
-10
-7
-6
-6
-8
-6
-3
-5
-6
-6
-4
-4
-5
-7
-2
-4
-4
-5
-2
-2
-4
-6
-7
-5
-7
-9
-10
-8
-10
-12
-13
-14
-14
-18
-18
-16
-17
-19
-20
-20
-23
-24
-27
-23
-24
-25
-28
-27
-26
-26
-29
-29
-29
-30
-33
-33
-29
-31
-34
-34
-31
-33
-35
-35
-35
-34
-35
-37
-36
-34
-35
-39
-36
-34
-37
-39
-38
-37
-37
-39
-36
-35
-33
-30
-30
-15
48
144
134
73
51
38
27
15
11
-41
-94
-160
-228
-300
-374
-429
-472
-511
-536
-564
-588
-606
-619
-623
-625
-629
-631
-634
-631
-628
-629
-623
-609
-604
-559
-521
-465
-397
-324
-262
-194
-129
-71
-25
22
65
101
123
139
152
162
167
175
184
191
196
201
212
216
223
229
241
248
255
262
271
283
291
298
309
322
329
335
344
352
361
366
371
381
383
385
383
389
390
383
376
374
365
355
342
329
313
295
277
258
242
222
201
181
165
147
129
112
103
92
77
65
59
57
41
35
33
27
21
19
17
18
16
10
8
10
11
6
7
7
7
3
4
8
7
6
4
7
9
8
6
7
7
6
3
2
4
3
1
-2
2
-1
-4
-6
-6
-5
-7
-11
-11
-11
-14
-14
-15
-15
-16
-21
-19
-18
-21
-23
-23
-20
-24
-26
-25
-25
-26
-29
-30
-25
-27
-29
-31
-29
-29
-30
-33
-30
-28
-33
-35
-32
-32
-32
-35
-33
-32
-31
-35
-34
-31
-33
-36
-37
-34
-34
-33
-34
-31
-32
-29
-18
36
63
167
91
58
50
38
21
0
-41
-99
-173
-251
-330
-404
-463
-507
-533
-563
-596
-611
-619
-624
-631
-633
-633
-631
-632
-632
-619
-603
-576
-538
-487
-419
-346
-280
-208
-136
-75
-23
29
78
116
141
156
171
179
186
193
206
210
220
228
235
239
244
246
252
260
265
272
281
291
302
311
320
327
335
340
346
354
360
364
367
370
371
368
365
360
356
347
337
327
314
299
280
263
248
229
207
187
171
154
134
118
107
91
81
69
62
60
43
34
31
27
21
16
15
13
12
8
8
8
7
7
6
8
7
7
5
7
8
6
3
9
10
7
7
7
7
7
3
3
5
4
0
1
1
-1
-4
-4
-5
-7
-11
-10
-10
-13
-15
-16
-13
-15
-19
-21
-21
-20
-21
-25
-23
-23
-23
-27
-27
-24
-26
-27
-28
-26
-28
-30
-32
-29
-29
-32
-34
-29
-28
-32
-32
-31
-30
-32
-33
-33
-31
-33
-33
-32
-32
-31
-33
-34
-27
-27
-26
-19
9
89
178
151
86
72
52
41
30
13
-18
-69
-131
-204
-283
-357
-416
-465
-503
-534
-568
-591
-605
-615
-620
-623
-626
-627
-630
-626
-624
-616
-600
-570
-530
-489
-436
-368
-298
-230
-167
-100
-44
3
46
87
121
140
150
163
177
186
192
200
209
213
222
226
236
247
253
259
269
280
288
298
310
322
333
340
349
358
363
367
373
381
387
387
387
387
389
380
374
371
365
358
344
332
318
302
283
265
250
230
209
191
175
157
140
123
112
98
85
74
65
61
48
40
37
30
26
23
21
20
19
15
16
19
16
15
14
19
20
17
16
20
20
18
15
21
20
18
16
18
18
15
13
12
14
12
7
6
8
5
0
0
2
0
-3
-6
-4
-4
-10
-12
-11
-11
-15
-16
-15
-15
-16
-19
-18
-17
-18
-22
-21
-20
-19
-22
-23
-22
-22
-25
-24
-24
-25
-25
-26
-24
-22
-25
-25
-25
-24
-25
-28
-26
-24
-25
-27
-28
-24
-25
-29
-26
-22
-19
-11
40
148
178
105
59
48
44
2
-34
-74
-125
-191
-248
-294
-334
-375
-438
-491
-525
-553
-579
-597
-607
-615
-621
-625
-623
-624
-624
-620
-610
-605
-567
-529
-475
-407
-336
-263
-189
-130
-69
-16
37
85
116
136
153
166
177
186
194
204
211
216
221
232
236
245
249
259
267
273
280
290
299
306
312
322
332
340
346
355
365
369
375
377
382
386
383
382
384
384
372
362
354
344
326
311
295
280
259
242
224
206
186
167
149
137
121
103
91
81
70
59
48
45
44
33
25
25
25
22
17
17
18
17
15
18
22
23
20
22
24
23
23
22
24
24
19
15
14
12
6
3
3
2
-2
-6
-7
-5
-3
-5
-4
-5
-8
-13
-12
-11
-12
-15
-18
-16
-16
-19
-21
-19
-20
-24
-24
-24
-22
-24
-27
-28
-24
-26
-30
-31
-26
-29
-32
-28
-26
-27
-29
-31
-28
-28
-30
-30
-28
-29
-30
-31
-29
-27
-29
-30
-30
-28
-28
-30
-28
-26
-29
-31
-31
-26
-28
-28
-30
-25
-25
-22
-8
52
79
178
105
67
57
44
31
16
-13
-56
-122
-192
-255
-326
-400
-452
-485
-514
-534
-549
-566
-588
-602
-609
-613
-614
-624
-626
-623
-619
-621
-613
-599
-576
-549
-518
-480
-430
-373
-310
-245
-181
-120
-65
-16
27
65
99
128
148
154
176
185
198
209
219
226
236
248
256
264
278
287
297
307
319
329
339
349
359
372
379
386
394
405
409
416
420
425
428
428
424
422
420
410
399
389
379
365
348
333
321
299
281
262
246
226
204
187
171
167
138
122
111
100
87
76
69
63
55
45
41
37
32
25
21
20
16
11
10
10
10
4
3
4
5
4
1
0
3
1
-1
1
4
2
1
2
3
4
0
2
6
3
1
0
2
1
0
-1
-1
0
-1
-4
-3
-3
-6
-6
-4
-3
-4
-5
-3
0
-2
-5
-7
-1
-6
-9
-12
-12
-13
-21
-22
-23
-23
-30
-33
-33
-31
-30
-28
-27
-25
-28
-30
-29
-29
-30
-32
-30
-28
-28
-31
-31
-27
-28
-30
-31
-30
-29
-32
-32
-29
-26
-25
-20
7
91
182
151
88
68
54
44
37
28
-1
-42
-95
-152
-220
-291
-356
-406
-419
-480
-507
-534
-563
-587
-600
-609
-612
-617
-622
-623
-618
-617
-616
-602
-580
-550
-519
-478
-434
-377
-318
-256
-193
-175
-83
-33
12
51
82
112
135
151
160
169
183
192
200
207
216
228
236
240
252
264
272
281
291
303
307
320
329
341
350
360
364
374
385
389
394
398
401
401
396
397
397
390
380
370
361
346
329
314
299
294
261
242
224
208
187
168
154
139
125
109
99
91
79
68
59
54
47
40
33
29
25
19
13
15
16
9
7
4
5
2
0
0
2
-1
-3
-1
3
0
0
-1
2
2
-1
2
2
5
3
2
4
5
4
2
3
5
2
0
2
2
0
-2
-2
-3
-2
-8
-8
-6
-9
-12
-13
-10
-13
-15
-17
-14
-13
-17
-18
-17
-17
-21
-21
-20
-22
-21
-25
-25
-16
-20
-21
-23
-17
-19
-19
-19
-15
-13
-14
-14
-13
-10
-21
-23
-22
-23
-26
-31
-35
-36
-37
-41
-39
-34
-30
-28
-23
-12
33
131
164
107
70
57
45
38
35
-10
-56
-115
-178
-249
-318
-375
-408
-440
-465
-493
-523
-553
-574
-583
-588
-599
-610
-612
-613
-614
-618
-615
-604
-599
-564
-532
-491
-441
-380
-308
-238
-170
-107
-49
-1
46
83
115
141
161
172
180
192
204
214
222
231
243
247
261
268
279
290
298
307
319
330
338
347
358
371
379
387
394
406
406
410
415
418
420
414
410
407
405
388
376
364
350
333
314
295
277
257
238
220
207
188
171
156
143
126
112
100
92
80
70
61
55
52
38
32
29
27
22
19
16
14
11
7
5
8
5
4
5
6
4
3
1
4
3
0
0
4
5
2
2
7
5
3
4
4
8
6
4
5
7
4
3
3
6
4
1
0
2
1
-3
-3
-1
0
-6
-7
-7
-7
-9
-11
-12
-10
-12
-16
-13
-12
-15
-19
-18
-14
-19
-21
-21
-21
-19
-21
-24
-21
-20
-23
-23
-21
-20
-23
-26
-22
-21
-23
-25
-25
-22
-26
-26
-25
-23
-23
-26
-26
-24
-24
-24
-27
-24
-22
-24
-25
-21
-18
-16
-5
40
136
167
112
77
68
54
43
32
10
-32
-87
-149
-206
-274
-346
-403
-448
-461
-517
-541
-566
-588
-603
-609
-614
-615
-619
-621
-621
-615
-615
-612
-601
-581
-548
-514
-468
-411
-346
-281
-220
-158
-139
-53
-9
31
68
100
124
144
156
165
172
182
193
199
203
214
222
228
235
244
253
260
267
276
288
292
301
310
320
330
336
344
354
364
368
374
382
389
389
392
394
398
397
390
388
384
376
366
354
344
340
313
295
282
261
241
221
207
191
170
154
141
129
113
99
88
78
66
58
50
46
41
34
28
28
29
21
19
16
18
15
11
11
13
12
7
9
12
11
9
9
12
10
8
9
10
8
7
6
10
12
9
6
6
6
3
2
4
4
0
-3
-2
-3
-4
-7
-8
-7
-10
-13
-15
-13
-15
-16
-19
-17
-16
-20
-20
-20
-20
-23
-24
-22
-23
-25
-26
-26
-24
-27
-29
-28
-25
-28
-30
-28
-27
-29
-29
-30
-29
-30
-30
-32
-29
-29
-33
-32
-29
-30
-31
-32
-31
-29
-32
-35
-32
-28
-29
-30
-20
10
100
155
108
66
60
40
27
14
-7
-48
-105
-172
-244
-328
-397
-450
-493
-527
-557
-585
-603
-613
-621
-623
-626
-626
-627
-627
-621
-617
-599
-573
-533
-489
-437
-369
-298
-232
-170
-110
-56
-10
30
67
102
129
143
153
161
173
182
188
195
203
206
213
219
228
234
240
245
255
264
268
276
286
297
303
308
318
328
335
342
351
359
365
366
369
372
373
367
362
360
353
342
328
317
303
283
265
246
232
212
191
174
157
138
119
106
97
85
71
62
57
54
39
35
32
29
22
19
19
17
16
12
11
12
12
9
9
11
10
8
10
12
13
10
9
13
12
10
8
10
9
7
7
7
8
4
1
2
3
-1
-4
-4
-3
-4
-10
-11
-10
-11
-15
-16
-15
-14
-19
-20
-18
-19
-22
-21
-22
-21
-22
-25
-26
-21
-24
-28
-26
-25
-26
-27
-28
-26
-25
-26
-28
-27
-26
-27
-28
-27
-24
-27
-27
-26
-24
-27
-29
-28
-23
-25
-28
-25
-24
-23
-20
10
99
172
115
67
59
58
38
23
-9
-60
-127
-201
-277
-348
-409
-460
-497
-526
-561
-590
-602
-605
-614
-619
-621
-619
-618
-621
-612
-593
-586
-529
-483
-420
-349
-279
-210
-137
-76
-24
20
66
103
129
146
160
174
185
193
204
212
219
224
232
242
245
249
256
264
269
271
278
285
294
300
308
320
334
343
347
357
367
370
374
377
383
382
380
377
376
375
358
347
337
324
305
288
272
255
235
212
192
178
158
142
128
114
102
87
75
69
59
50
43
41
38
29
26
25
27
22
20
20
21
19
18
20
21
20
18
19
20
24
19
21
22
22
19
20
21
21
19
16
20
19
15
12
13
12
10
5
6
6
4
-1
-2
0
-2
-5
-7
-5
-5
-11
-13
-9
-9
-13
-14
-12
-14
-16
-17
-15
-16
-17
-20
-19
-16
-18
-20
-21
-18
-18
-23
-21
-19
-19
-22
-23
-20
-19
-22
-24
-23
-22
-22
-24
-22
-21
-23
-23
-21
-17
-19
-19
-10
20
113
172
119
69
52
32
10
-19
-29
-114
-173
-224
-267
-308
-350
-400
-457
-506
-536
-560
-580
-597
-605
-611
-614
-618
-623
-618
-612
-607
-596
-572
-538
-526
-442
-375
-301
-226
-162
-102
-45
9
57
95
126
146
159
166
180
193
197
203
211
220
225
232
236
245
248
258
266
276
283
289
299
309
320
329
337
347
358
364
370
378
386
390
391
392
394
392
382
378
370
367
344
330
314
297
280
263
251
233
212
190
171
156
137
120
106
96
83
69
62
55
46
40
33
30
27
22
19
19
17
17
13
15
14
15
13
14
17
16
12
14
16
17
13
15
17
18
13
14
16
15
12
11
10
12
7
6
6
5
3
-2
-1
0
-4
-9
-7
-6
-8
-11
-11
-12
-11
-15
-16
-14
-15
-18
-18
-15
-17
-17
-19
-16
-18
-19
-21
-21
-21
-21
-24
-23
-21
-22
-25
-25
-19
-22
-25
-27
-23
-24
-25
-27
-23
-23
-25
-26
-25
-23
-24
-26
-25
-24
-24
-25
-21
-12
24
119
170
116
69
49
35
19
11
-62
-111
-171
-235
-295
-343
-382
-429
-487
-533
-556
-576
-596
-607
-612
-616
-619
-626
-622
-618
-617
-615
-603
-577
-567
-508
-457
-394
-328
-257
-185
-122
-63
-15
31
79
113
134
148
160
171
181
187
196
205
212
216
224
232
235
241
250
257
267
270
277
287
297
302
310
320
327
333
338
348
356
360
361
370
373
375
374
371
371
373
358
350
341
330
315
300
285
266
245
228
211
196
175
154
139
124
110
94
82
77
64
52
47
41
40
30
27
25
25
22
20
23
23
21
17
19
19
19
16
18
21
16
8
6
8
7
2
2
2
1
-2
-2
2
2
2
-2
-1
0
-4
-8
-5
-5
-6
-11
-11
-10
-12
-16
-18
-16
-17
-19
-19
-20
-21
-24
-26
-24
-24
-27
-28
-25
-24
-24
-28
-28
-28
-27
-30
-28
-29
-28
-30
-28
-27
-25
-29
-28
-26
-27
-28
-29
-25
-27
-28
-31
-27
-27
-29
-31
-28
-28
-29
-32
-29
-28
-29
-31
-29
-27
-26
-28
-27
-23
-22
-13
28
129
179
120
76
65
54
38
24
5
-24
-69
-127
-189
-245
-314
-377
-425
-460
-489
-510
-533
-559
-567
-590
-598
-605
-609
-616
-616
-613
-614
-613
-603
-585
-560
-533
-500
-461
-414
-357
-296
-236
-177
-121
-70
-25
16
29
87
116
136
150
157
165
176
187
193
202
212
220
228
234
244
258
262
269
279
293
298
307
317
328
332
346
357
369
377
381
386
395
399
400
400
403
404
397
391
386
379
368
353
342
330
313
295
281
267
261
228
211
198
184
167
150
140
125
110
98
88
80
69
60
57
53
46
36
36
34
28
23
21
20
19
14
13
15
14
11
10
13
16
14
11
12
15
14
13
18
21
22
23
25
27
28
22
19
19
22
13
9
11
6
0
-3
-1
-3
-4
-4
1
1
-2
-5
-3
-2
-3
-7
-8
-6
-7
-11
-11
-9
-10
-16
-15
-14
-11
-15
-16
-16
-15
-17
-18
-18
-15
-18
-19
-17
-15
-18
-20
-18
-15
-18
-19
-19
-19
-18
-20
-21
-18
-16
-19
-21
-15
-16
-17
-19
-14
-14
-13
-11
5
59
156
167
103
72
62
51
40
28
22
-54
-117
-185
-259
-333
-397
-442
-476
-503
-523
-540
-563
-585
-600
-601
-608
-614
-619
-619
-617
-617
-614
-607
-588
-582
-537
-504
-462
-407
-348
-283
-217
-154
-96
-46
0
38
70
105
135
155
165
177
187
200
208
216
224
236
240
251
262
274
285
293
304
314
325
331
342
356
365
374
381
392
403
408
411
417
423
426
426
425
425
425
414
405
402
390
375
362
346
330
310
289
273
254
236
216
202
184
170
151
140
128
115
102
91
84
80
63
56
54
48
40
35
33
32
27
24
23
22
19
16
18
15
15
11
15
15
14
13
13
13
14
11
12
14
15
11
12
13
15
14
11
13
13
10
8
11
11
8
6
7
8
6
1
3
2
2
-2
-4
-4
-4
-7
-8
-6
-9
-12
-13
-12
-12
-14
-15
-12
-8
-9
-8
-6
-4
-5
-6
-7
-7
-6
-7
-9
-7
-10
-16
-19
-19
-22
-24
-28
-28
-31
-34
-35
-28
-25
-26
-29
-28
-24
-26
-26
-27
-22
-21
0
71
166
149
82
59
53
41
29
14
-10
-51
-106
-170
-229
-291
-354
-395
-426
-453
-484
-519
-551
-567
-572
-595
-605
-610
-615
-620
-623
-621
-615
-608
-591
-563
-531
-495
-451
-391
-324
-260
-204
-137
-76
-25
18
60
99
110
149
166
181
195
202
213
227
239
247
255
267
277
286
296
310
322
330
339
350
361
370
376
388
398
401
407
415
422
424
423
424
424
420
415
406
397
384
371
355
339
324
303
283
264
249
226
205
186
171
166
134
120
110
96
84
73
64
56
48
39
36
32
25
20
17
14
10
6
4
5
3
-2
-3
0
1
-5
-8
-6
-6
-7
-6
-4
-4
-4
-5
-2
-1
-1
-3
0
-2
-1
-2
0
2
1
1
0
2
2
-1
-2
-2
-3
-3
-6
-5
-5
-7
-12
-9
-8
-13
-16
-13
-14
-16
-17
-16
-17
-18
-21
-22
-20
-22
-24
-25
-22
-23
-26
-27
-26
-24
-26
-28
-27
-24
-28
-33
-28
-30
-29
-31
-31
-28
-32
-34
-31
-31
-30
-33
-34
-32
-31
-33
-32
-30
-29
-28
-25
-21
-17
-17
-8
20
104
185
150
90
68
54
37
24
3
-6
-85
-149
-213
-280
-350
-406
-445
-481
-512
-540
-568
-593
-608
-616
-621
-625
-628
-630
-630
-626
-626
-619
-603
-576
-567
-512
-473
-422
-366
-308
-245
-187
-134
-80
-32
12
49
84
110
130
141
151
160
170
180
187
195
201
211
214
221
231
238
246
253
262
271
280
287
295
307
314
322
328
336
345
350
353
360
366
365
365
367
365
365
355
348
342
331
316
304
290
274
257
238
221
205
185
169
155
140
126
113
102
92
81
69
63
56
53
38
31
30
26
19
16
13
12
9
5
7
8
5
3
4
4
4
2
4
6
5
3
3
6
6
4
5
7
6
6
4
5
5
3
4
5
5
2
-1
0
-1
-2
-6
-5
-4
-7
-11
-12
-10
-10
-15
-16
-15
-15
-16
-19
-15
-18
-23
-23
-20
-21
-22
-23
-21
-23
-24
-26
-26
-24
-25
-28
-27
-25
-26
-27
-29
-27
-25
-29
-30
-26
-27
-28
-31
-29
-28
-28
-31
-28
-29
-28
-29
-26
-20
-6
58
164
148
125
57
48
41
26
-2
-47
-106
-175
-251
-327
-386
-434
-479
-511
-538
-570
-594
-610
-615
-619
-624
-628
-632
-628
-628
-626
-616
-600
-573
-540
-496
-443
-371
-302
-234
-164
-101
-52
-2
47
89
116
130
145
154
162
170
180
188
191
200
206
215
220
223
232
239
245
251
258
269
278
286
294
306
314
323
330
342
352
357
362
371
377
378
379
380
379
373
365
356
351
335
318
303
286
269
247
228
209
190
170
151
136
122
107
90
81
73
69
53
47
44
38
31
27
27
23
21
18
20
20
17
16
19
19
18
15
18
18
21
17
19
20
21
15
16
19
15
12
13
13
12
10
5
10
9
5
0
2
1
-1
-5
-4
-5
-5
-11
-8
-10
-11
-14
-16
-13
-16
-20
-21
-18
-19
-21
-24
-22
-22
-24
-25
-23
-24
-24
-26
-26
-25
-23
-26
-25
-25
-23
-29
-30
-27
-27
-30
-30
-27
-29
-31
-30
-29
-30
-27
-29
-25
-20
-9
38
147
165
92
56
48
36
32
0
-40
-96
-167
-243
-325
-392
-445
-489
-519
-547
-575
-599
-611
-614
-621
-625
-629
-628
-626
-623
-620
-607
-584
-576
-523
-477
-413
-347
-282
-217
-151
-89
-38
10
57
95
127
148
165
178
189
196
206
214
221
227
235
242
245
250
258
264
269
274
281
292
297
302
311
328
339
344
350
358
365
368
372
377
382
383
381
380
378
375
360
350
340
324
308
291
273
253
232
211
192
173
154
135
121
106
91
77
68
60
49
40
35
33
30
23
20
20
18
13
13
17
13
9
8
11
14
12
10
12
14
13
11
11
13
11
8
10
12
10
7
8
8
7
3
2
4
3
-3
-4
-3
-5
-8
-9
-8
-10
-12
-15
-14
-14
-16
-20
-18
-18
-18
-25
-23
-21
-24
-24
-28
-24
-25
-27
-30
-27
-25
-29
-31
-29
-29
-29
-30
-32
-30
-29
-32
-29
-30
-30
-32
-34
-31
-31
-33
-35
-33
-33
-35
-34
-33
-31
-33
-32
-24
-11
49
152
159
88
53
36
15
-4
-11
-79
-128
-189
-248
-294
-336
-380
-436
-493
-530
-553
-582
-601
-611
-614
-620
-624
-626
-627
-623
-621
-616
-600
-575
-566
-498
-444
-378
-312
-247
-184
-127
-76
-29
20
63
98
119
134
148
159
165
173
183
190
195
201
207
214
217
223
231
239
245
250
258
267
276
281
292
302
310
317
328
337
344
349
355
362
365
368
366
366
363
359
342
329
319
303
283
264
249
232
212
196
181
166
149
129
114
100
86
72
62
53
44
36
27
25
24
15
13
12
9
6
7
10
8
4
5
8
9
6
6
8
7
5
7
9
10
9
8
9
10
11
5
3
5
4
0
1
1
0
-3
-3
-5
-7
-9
-11
-11
-12
-12
-15
-14
-14
-17
-19
-15
-15
-16
-21
-21
-20
-21
-23
-23
-20
-22
-25
-23
-22
-25
-24
-26
-22
-23
-25
-27
-24
-22
-23
-26
-25
-25
-25
-28
-28
-26
-27
-30
-29
-27
-28
-30
-30
-29
-28
-29
-30
-26
-25
-25
-21
-2
60
159
162
97
69
65
43
34
21
-4
-43
-93
-151
-210
-280
-344
-394
-444
-488
-513
-538
-567
-590
-602
-608
-611
-617
-621
-620
-619
-620
-619
-612
-596
-575
-547
-509
-464
-408
-348
-284
-222
-160
-104
-55
-9
31
65
94
119
134
143
152
162
170
172
182
189
197
204
206
213
221
227
230
239
250
256
259
270
282
290
295
303
314
321
327
331
341
348
351
357
358
362
363
358
357
354
349
340
330
322
313
297
278
265
247
230
211
195
180
165
147
131
116
110
87
75
69
56
43
36
28
25
18
14
14
16
14
13
15
13
14
12
13
15
12
12
14
16
15
14
13
16
16
15
14
15
13
12
9
12
9
8
8
8
6
5
0
2
0
-4
-6
-6
-6
-7
-9
-11
-11
-10
-14
-14
-14
-15
-18
-18
-15
-15
-17
-19
-17
-17
-21
-23
-21
-17
-19
-20
-21
-19
-19
-20
-21
-20
-21
-23
-22
-18
-21
-22
-25
-23
-21
-22
-24
-21
-21
-23
-25
-23
-21
-24
-24
-26
-23
-24
-25
-23
-21
-22
-24
-22
-15
-6
22
116
189
141
84
66
58
48
39
24
3
-32
-81
-141
-200
-263
-285
-386
-432
-468
-494
-518
-544
-569
-586
-595
-603
-605
-609
-614
-616
-613
-611
-609
-604
-588
-569
-545
-513
-473
-423
-405
-310
-248
-189
-134
-82
-37
4
42
77
109
133
150
160
169
180
191
197
203
215
221
229
236
243
254
258
267
278
287
298
304
314
326
334
341
350
362
369
375
379
388
395
397
400
403
405
404
399
395
391
388
368
357
346
329
309
293
277
259
238
221
206
188
168
149
140
127
112
99
92
81
72
63
55
51
48
38
35
33
28
22
20
22
20
17
15
18
16
13
14
14
14
13
11
12
15
14
13
16
21
22
22
20
24
23
19
20
24
24
21
17
16
11
6
4
2
0
-5
-9
-8
-9
-11
-12
-12
-8
-9
-14
-15
-14
-17
-17
-19
-17
-18
-20
-20
-18
-21
-21
-22
-19
-21
-22
-25
-22
-22
-22
-24
-22
-21
-23
-26
-26
-22
-23
-25
-25
-22
-21
-22
-23
-22
-23
-24
-25
-22
-22
-22
-23
-20
-18
-15
-16
-2
46
68
177
114
75
60
46
38
27
-1
-43
-101
-165
-236
-307
-380
-433
-474
-505
-520
-535
-554
-578
-590
-596
-599
-602
-612
-613
-611
-611
-610
-604
-590
-573
-553
-523
-487
-449
-404
-340
-276
-218
-162
-107
-50
-5
36
72
106
136
144
167
179
192
201
209
222
233
243
249
261
272
282
291
299
312
324
333
340
355
366
373
382
394
402
406
412
418
422
425
422
421
420
415
406
397
387
377
363
344
331
316
295
276
260
241
222
204
185
170
164
135
122
114
99
87
77
70
61
51
43
42
38
32
28
29
26
20
18
17
15
12
8
12
12
11
7
10
11
8
6
8
9
12
8
7
10
12
11
9
13
13
10
9
12
14
11
9
11
13
12
6
5
8
5
1
2
4
3
0
-1
1
3
2
4
3
6
3
1
1
3
2
-4
-2
-2
-3
-13
-15
-14
-19
-22
-22
-22
-23
-25
-24
-17
-20
-25
-26
-23
-23
-25
-27
-25
-22
-25
-25
-23
-20
-21
-27
-26
-20
-22
-23
-19
-4
45
150
189
123
77
62
52
46
36
18
-10
-46
-98
-160
-220
-282
-336
-351
-421
-449
-478
-512
-544
-563
-571
-583
-595
-601
-603
-605
-606
-601
-591
-567
-541
-509
-468
-426
-375
-314
-249
-191
-175
-82
-30
11
46
78
109
132
144
152
163
177
186
192
204
213
222
230
239
251
264
269
281
295
304
308
321
333
344
352
358
367
377
382
384
386
390
391
387
384
381
374
362
350
340
326
311
294
278
262
254
223
204
190
174
154
139
129
116
100
89
81
70
61
53
50
42
37
31
28
27
23
19
18
17
17
14
12
11
9
8
6
9
8
6
5
8
9
8
7
10
12
11
9
11
13
13
12
13
14
13
11
12
15
13
9
9
12
10
6
5
7
6
2
-1
2
0
-2
-3
-4
-2
-5
-7
-5
-4
-5
-12
-9
-10
-10
-13
-11
-11
-13
-13
-15
-13
-14
-16
-17
-14
-14
-14
-15
-14
-12
-14
-14
-10
-8
-7
-8
-5
-3
-5
-7
-11
-11
-14
-16
-17
-15
-16
-18
-20
-6
36
141
186
126
82
67
54
48
40
36
-9
-54
-112
-175
-238
-309
-364
-407
-441
-469
-493
-522
-547
-562
-566
-573
-583
-591
-594
-596
-600
-603
-595
-584
-580
-543
-509
-472
-433
-373
-306
-244
-181
-125
-65
-14
29
68
101
134
153
163
177
187
199
208
217
228
236
239
252
263
275
285
292
302
315
325
334
346
358
367
373
384
393
401
403
406
411
414
412
408
408
403
399
382
370
359
339
322
306
287
268
248
230
212
194
175
157
141
127
112
98
88
79
71
61
57
53
49
39
37
35
29
25
25
25
21
19
16
19
18
16
15
15
15
15
15
17
18
16
15
17
19
20
16
19
21
22
17
16
20
20
15
15
18
17
13
10
12
11
9
6
7
9
7
4
5
5
3
0
-1
2
-1
-5
-4
-2
-5
-6
-5
-5
-6
-7
-9
-9
-7
-9
-11
-9
-7
-9
-13
-12
-9
-9
-13
-13
-11
-12
-13
-13
-12
-11
-14
-15
-12
-13
-14
-16
-13
-12
-10
-5
23
102
188
155
92
74
70
50
43
27
-6
-51
-117
-181
-259
-337
-393
-438
-477
-509
-542
-566
-580
-590
-597
-601
-602
-604
-606
-604
-599
-598
-582
-554
-520
-478
-427
-359
-292
-228
-165
-102
-48
-3
35
77
111
134
147
158
172
181
187
195
205
216
220
227
236
245
252
259
268
280
287
294
303
316
325
333
343
354
363
367
372
383
389
392
394
394
398
396
388
385
378
366
350
336
322
303
279
262
245
225
204
185
171
152
136
120
108
99
85
74
66
61
58
46
43
41
34
30
27
29
27
23
21
24
24
21
18
22
25
24
19
21
21
20
19
22
23
22
18
19
21
19
15
17
18
15
12
10
10
10
8
6
7
5
0
0
0
0
-2
-5
-4
-5
-6
-9
-8
-6
-9
-10
-11
-9
-12
-13
-15
-12
-13
-14
-15
-15
-13
-14
-16
-15
-13
-16
-17
-15
-16
-17
-20
-19
-15
-17
-18
-18
-15
-17
-19
-19
-17
-16
-18
-19
-13
-7
17
100
183
146
85
64
53
46
41
1
-35
-87
-153
-222
-294
-360
-415
-465
-494
-516
-544
-570
-584
-589
-593
-600
-602
-602
-601
-603
-598
-586
-564
-557
-498
-449
-393
-327
-264
-200
-136
-81
-34
11
50
90
116
137
150
159
166
173
184
193
195
202
209
215
216
224
232
240
245
250
258
267
275
279
289
301
307
315
322
334
342
346
354
361
363
365
365
366
365
364
352
344
334
321
304
288
272
252
232
213
197
177
160
143
131
117
103
92
83
71
61
52
51
46
43
35
34
32
31
28
28
29
27
24
24
28
29
25
23
26
26
24
24
27
25
24
22
23
26
26
21
20
22
19
18
15
17
16
12
10
11
9
6
3
7
4
2
0
1
0
2
-4
-1
-2
-4
-7
-8
-4
-6
-9
-9
-7
-9
-10
-12
-9
-9
-11
-13
-10
-10
-10
-11
-11
-10
-12
-13
-12
-10
-11
-14
-14
-8
-11
-14
-13
-11
-13
-14
-16
-12
-13
-14
-15
-10
-11
-9
-8
12
64
164
185
120
84
79
61
55
45
24
-9
-54
-107
-171
-240
-308
-362
-411
-453
-484
-507
-536
-564
-580
-584
-591
-597
-601
-602
-600
-601
-600
-594
-578
-559
-529
-490
-439
-382
-322
-255
-194
-130
-75
-23
22
64
98
126
150
166
175
184
197
207
210
220
230
239
242
248
254
261
264
267
273
283
287
292
299
308
317
322
332
345
355
361
367
375
381
383
385
387
389
385
379
373
368
354
338
325
315
296
275
256
239
221
200
180
167
151
134
121
111
100
96
77
70
66
56
53
48
48
43
40
37
40
36
36
34
35
37
35
34
37
36
34
32
35
38
37
33
34
35
35
33
31
33
31
29
26
29
27
23
24
23
22
19
17
17
18
14
11
10
11
10
4
4
6
2
-1
0
6
0
-1
-2
-1
-4
-6
-4
-5
-5
-7
-9
-7
-5
-7
-9
-7
-6
-5
-13
-11
-8
-11
-13
-10
-9
-10
-11
-14
-11
-9
-13
-15
-11
-9
-13
-15
-12
-12
-14
-14
-11
-10
-9
-12
-11
-7
-1
31
124
184
128
81
63
51
33
11
-20
-54
-99
-155
-210
-246
-280
-320
-366
-420
-464
-478
-526
-546
-563
-577
-585
-589
-594
-594
-596
-596
-591
-587
-581
-565
-537
-503
-459
-406
-341
-276
-211
-154
-98
-46
-31
47
90
123
139
153
163
179
185
191
200
209
214
219
225
234
238
243
249
257
264
271
275
286
295
298
309
319
328
334
341
350
360
367
372
381
390
395
395
394
397
394
389
381
373
361
345
331
315
297
291
257
240
221
200
185
172
161
144
128
117
107
95
83
74
68
60
52
46
44
41
36
32
30
30
28
24
26
28
24
25
24
25
25
25
24
27
25
24
25
26
24
23
21
24
25
23
21
23
23
22
16
17
19
17
11
10
15
11
8
8
9
5
4
3
4
4
0
-1
-1
0
-3
-4
-5
-3
-4
-6
-8
-6
-6
-11
-7
-4
-8
-10
-11
-9
-8
-12
-11
-8
-10
-12
-10
-10
-11
-13
-15
-11
-12
-12
-18
-15
-13
-15
-17
-14
-12
-14
-17
-17
-16
-15
-17
-19
-15
-16
-17
-19
-14
-14
-13
-14
-9
7
15
150
156
100
72
59
45
32
9
-25
-68
-112
-176
-233
-285
-328
-371
-422
-475
-507
-533
-555
-575
-584
-587
-589
-598
-597
-595
-599
-599
-594
-584
-572
-553
-517
-477
-430
-376
-310
-246
-189
-136
-84
-32
10
50
90
120
140
145
161
171
182
189
195
204
213
217
218
228
236
240
245
253
263
271
277
283
292
302
309
315
325
333
336
344
353
358
364
366
371
376
376
372
369
367
360
350
339
331
320
305
290
275
257
236
213
199
183
175
143
126
112
92
77
67
62
53
49
43
41
36
29
26
26
24
19
16
19
19
15
14
15
17
16
14
14
16
16
13
16
19
15
13
14
17
15
13
13
14
12
9
9
10
8
6
3
6
6
4
-1
-3
-1
-5
-5
-6
-6
-7
-9
-10
-8
-9
-13
-12
-11
-11
-13
-15
-12
-13
-14
-17
-16
-14
-16
-16
-17
-12
-16
-21
-18
-16
-17
-19
-19
-17
-16
-19
-20
-19
-19
-19
-21
-20
-17
-20
-21
-20
-19
-18
-24
-22
-17
-20
-21
-20
-17
-18
-20
-14
-3
35
132
168
109
70
61
48
41
27
-1
-43
-97
-157
-178
-290
-348
-395
-440
-473
-498
-526
-554
-574
-581
-586
-593
-600
-602
-598
-598
-598
-595
-583
-568
-546
-513
-472
-421
-403
-293
-228
-164
-105
-55
-9
33
68
98
120
137
144
153
162
172
178
184
191
199
205
210
216
225
235
238
248
258
269
275
284
294
305
313
320
330
341
347
353
360
367
372
371
372
377
378
373
368
366
357
353
332
323
310
290
273
253
237
215
191
173
158
140
119
101
91
77
64
56
52
47
41
34
31
32
29
23
20
24
20
18
18
19
17
14
15
19
18
15
14
17
19
17
16
19
19
15
15
18
18
16
11
13
12
11
8
6
8
7
4
1
2
1
-3
-3
-2
-4
-6
-8
-8
-6
-8
-10
-9
-10
-11
-14
-13
-13
-14
-16
-14
-13
-14
-15
-15
-14
-14
-17
-17
-16
-18
-18
-19
-18
-16
-17
-17
-18
-16
-17
-23
-20
-18
-20
-21
-20
-20
-21
-20
-21
-19
-19
-18
-13
10
92
165
122
73
60
49
37
28
6
-5
-87
-152
-220
-296
-362
-414
-454
-488
-515
-545
-567
-585
-593
-599
-603
-605
-607
-608
-604
-600
-596
-583
-562
-531
-520
-444
-377
-310
-246
-184
-119
-62
-15
24
70
107
130
142
154
168
178
185
194
202
212
219
225
235
246
249
260
270
281
289
297
308
321
326
332
343
353
361
367
374
383
387
388
391
395
396
391
386
382
376
372
348
335
320
301
279
263
246
226
204
187
171
155
137
121
110
97
84
74
66
57
47
41
39
33
32
22
20
21
16
13
14
16
12
10
10
13
13
12
11
16
18
16
16
21
23
21
20
21
25
24
16
15
17
10
4
2
1
-4
-8
-8
-7
-9
-11
-10
-8
-9
-11
-13
-11
-13
-15
-18
-16
-16
-18
-20
-20
-20
-23
-24
-25
-23
-25
-27
-27
-27
-26
-29
-29
-26
-27
-31
-32
-29
-28
-30
-32
-29
-28
-28
-32
-31
-28
-29
-31
-30
-30
-29
-33
-31
-27
-29
-31
-30
-29
-29
-28
-27
-21
-6
57
147
136
78
64
43
36
24
4
-31
-80
-138
-211
-283
-354
-410
-456
-493
-515
-526
-545
-573
-589
-592
-597
-605
-609
-612
-608
-609
-608
-599
-587
-569
-545
-510
-472
-432
-383
-320
-257
-195
-137
-80
-29
13
49
84
114
133
143
155
169
181
184
199
212
223
231
240
251
265
275
284
296
312
321
329
342
353
363
370
377
386
393
395
398
402
403
402
394
391
385
372
359
343
330
313
292
275
261
241
220
199
186
168
150
136
124
112
97
83
76
68
64
50
44
40
34
26
22
25
18
14
10
11
11
5
7
6
6
3
3
6
5
3
1
3
4
3
1
3
4
5
0
4
6
3
2
3
5
5
1
2
3
2
0
1
6
8
5
6
4
6
5
1
4
5
0
-5
-7
-11
-13
-17
-17
-19
-21
-26
-29
-24
-22
-22
-25
-24
-23
-25
-26
-24
-24
-23
-26
-24
-22
-26
-29
-27
-26
-27
-29
-29
-26
-27
-28
-30
-26
-26
-27
-28
-22
-17
-16
22
113
142
134
60
53
49
41
30
11
-22
-73
-133
-196
-256
-320
-375
-415
-444
-474
-508
-542
-558
-570
-584
-591
-597
-599
-600
-602
-600
-592
-579
-558
-528
-488
-452
-403
-339
-271
-211
-150
-89
-34
12
46
82
115
134
147
158
169
179
183
194
207
220
226
235
247
259
268
277
289
301
311
321
332
345
354
363
370
380
388
390
393
399
400
399
391
389
381
372
358
347
336
317
298
279
263
244
225
204
187
171
153
134
124
109
94
82
74
66
62
50
45
39
32
27
23
23
18
14
11
12
12
8
7
8
8
6
4
5
6
5
5
8
7
7
6
6
10
9
7
8
12
9
8
8
10
8
5
7
7
4
1
1
2
0
-2
-4
-4
-4
-5
-9
-10
-7
-10
-13
-12
-9
-11
-15
-17
-13
-14
-18
-18
-16
-16
-20
-21
-17
-15
-14
-15
-12
-10
-9
-10
-8
-7
-8
-12
-12
-11
-14
-20
-22
-21
-25
-28
-32
-29
-31
-28
-16
31
132
174
109
67
56
52
31
21
-3
-44
-101
-168
-235
-306
-366
-402
-424
-447
-480
-509
-532
-549
-563
-575
-583
-590
-594
-601
-602
-598
-596
-583
-559
-530
-500
-461
-405
-341
-274
-211
-146
-82
-30
13
54
93
127
141
156
171
181
189
200
211
222
225
240
251
262
271
281
293
308
319
326
339
351
360
368
378
388
395
398
402
408
410
409
405
402
398
394
376
364
352
335
317
301
282
261
241
223
207
189
169
149
139
124
106
94
85
75
65
56
50
46
42
33
31
28
24
18
18
16
12
11
9
11
8
7
6
6
6
4
3
6
7
5
3
5
7
6
3
8
7
8
5
8
10
9
7
9
8
9
5
4
6
5
0
-1
2
3
-1
-4
-3
-3
-2
-7
-7
-6
-8
-11
-10
-7
-8
-13
-12
-12
-12
-16
-16
-15
-16
-19
-20
-16
-16
-18
-20
-18
-17
-18
-19
-19
-20
-20
-23
-21
-17
-19
-20
-21
-20
-20
-23
-21
-19
-21
-23
-23
-21
-19
-23
-19
-15
-3
2
127
200
147
85
65
54
39
16
-18
-63
-111
-173
-235
-287
-331
-374
-426
-479
-510
-535
-560
-579
-590
-594
-597
-606
-606
-606
-605
-607
-601
-590
-573
-546
-507
-463
-409
-348
-283
-215
-154
-106
-57
-11
35
69
101
123
136
140
153
167
175
182
187
196
205
209
213
222
231
236
241
252
261
269
272
282
290
299
304
312
320
330
333
340
347
353
357
356
359
363
358
353
349
344
335
321
309
296
279
260
240
225
207
187
167
153
138
133
107
98
89
77
67
60
55
45
37
34
32
28
22
20
18
19
16
14
15
15
13
10
12
14
12
11
13
13
13
11
11
14
12
11
12
15
12
10
11
12
13
8
6
11
9
5
4
6
5
6
-1
1
3
-3
-4
-3
-4
-6
-12
-10
-9
-9
-12
-12
-9
-9
-15
-16
-15
-14
-16
-17
-15
-15
-15
-21
-19
-19
-19
-22
-20
-20
-20
-22
-22
-18
-19
-22
-21
-20
-20
-22
-24
-20
-22
-24
-24
-21
-21
-21
-26
-21
-20
-21
-23
-24
-21
-23
-24
-21
-14
-3
38
138
180
123
76
63
55
46
36
20
-1
-41
-56
-161
-226
-293
-357
-408
-450
-479
-504
-534
-559
-576
-585
-594
-600
-601
-604
-608
-609
-606
-603
-600
-587
-563
-532
-521
-457
-400
-340
-282
-227
-167
-107
-54
-9
32
70
102
121
134
147
162
170
179
187
193
196
204
211
218
221
226
235
242
248
253
263
270
276
280
291
299
308
314
323
335
345
349
355
364
368
372
373
377
377
375
363
361
352
340
325
312
297
282
258
242
227
210
189
174
159
141
125
113
101
91
78
69
63
57
54
43
40
37
32
27
29
27
25
23
25
23
25
20
21
23
21
20
18
21
22
22
20
21
22
22
19
21
21
20
18
19
22
17
14
13
14
11
9
9
7
9
4
2
4
3
0
-3
-2
-2
-4
-8
-6
-6
-9
-12
-9
-7
-9
-13
-13
-13
-12
-15
-14
-15
-14
-16
-18
-15
-16
-19
-20
-17
-17
-16
-21
-18
-16
-17
-21
-19
-16
-18
-22
-21
-19
-18
-21
-23
-20
-20
-23
-23
-22
-21
-24
-24
-21
-21
-20
-23
-19
-15
-10
23
114
165
111
67
57
49
39
26
14
-11
-54
-112
-173
-232
-301
-365
-415
-455
-486
-494
-538
-565
-579
-592
-598
-602
-603
-608
-609
-608
-606
-603
-599
-585
-563
-532
-498
-447
-382
-312
-247
-183
-115
-57
-40
36
78
116
143
158
174
186
194
202
210
220
225
225
232
238
245
245
250
259
265
271
278
288
301
305
315
326
337
346
350
362
371
374
376
382
388
387
385
382
381
373
363
354
343
329
310
294
276
259
253
216
200
180
161
140
128
114
98
85
75
66
59
49
46
42
36
30
27
27
26
24
20
22
19
20
15
17
21
18
14
15
20
17
16
15
20
19
16
17
19
20
15
13
15
15
12
9
10
10
9
5
4
5
2
-3
0
-1
-3
-5
-7
-7
-5
-10
-10
-10
-12
-14
-16
-13
-13
-17
-20
-18
-17
-20
-20
-19
-18
-20
-23
-23
-21
-22
-25
-23
-22
-22
-25
-23
-23
-24
-26
-28
-24
-25
-26
-28
-26
-24
-25
-28
-26
-23
-25
-28
-28
-23
-25
-27
-23
-20
-9
36
136
152
91
57
43
29
9
-20
-61
-100
-154
-173
-266
-307
-342
-390
-452
-497
-523
-551
-578
-591
-597
-604
-611
-613
-612
-612
-611
-608
-594
-571
-543
-498
-441
-378
-356
-241
-175
-119
-68
-18
29
71
101
119
136
149
156
163
172
182
189
193
199
209
216
219
227
239
248
250
262
268
275
280
286
294
304
308
310
317
322
330
330
338
346
350
347
344
342
335
324
313
304
291
285
255
238
225
204
186
171
155
138
120
105
95
84
71
61
53
47
38
32
29
25
20
16
17
16
15
12
13
16
13
11
14
15
15
12
15
17
18
16
14
15
15
16
14
17
16
14
12
13
14
15
10
10
9
4
2
5
4
2
-2
-1
1
-2
-7
-7
-4
-6
-8
-9
-8
-7
-12
-13
-11
-11
-12
-16
-15
-14
-17
-19
-16
-17
-16
-19
-18
-15
-17
-19
-19
-16
-18
-19
-21
-20
-18
-20
-20
-18
-20
-18
-21
-21
-19
-22
-23
-20
-16
-19
-20
-18
-12
9
78
173
138
79
62
53
45
33
5
-36
-90
-155
-176
-304
-365
-416
-462
-496
-523
-550
-576
-591
-595
-598
-603
-608
-611
-607
-603
-605
-599
-581
-555
-524
-482
-424
-353
-331
-222
-149
-84
-34
11
59
99
124
142
157
169
181
189
200
209
219
225
231
245
252
257
263
270
277
279
289
297
305
310
315
325
330
337
341
354
365
372
375
381
385
388
388
386
385
379
370
360
353
338
333
302
288
270
250
232
216
198
178
158
144
129
114
99
89
78
70
59
52
48
44
36
32
32
30
29
24
25
25
23
20
22
24
23
22
23
23
25
22
20
24
26
24
24
26
26
25
22
23
24
23
19
20
19
18
15
15
15
14
9
8
10
7
2
1
3
2
-1
-3
-2
-2
-4
-5
-6
-6
-7
-10
-10
-8
-10
-12
-13
-11
-13
-15
-15
-13
-16
-17
-17
-15
-15
-18
-18
-16
-16
-19
-19
-17
-16
-16
-21
-18
-18
-20
-23
-21
-17
-21
-22
-21
-19
-19
-20
-21
-18
-14
-13
-2
61
156
144
85
64
51
46
10
-17
-54
-102
-158
-212
-255
-297
-337
-384
-441
-486
-519
-544
-565
-583
-592
-596
-601
-603
-606
-610
-602
-601
-600
-581
-558
-520
-475
-418
-347
-271
-201
-143
-82
-25
22
65
106
132
151
159
171
182
190
197
203
212
219
221
228
239
244
250
255
264
274
280
285
297
309
315
321
331
345
353
356
363
371
375
378
380
383
382
380
370
364
353
337
322
307
293
273
249
232
214
196
173
156
141
126
107
92
85
76
65
59
56
52
49
43
42
42
38
35
33
35
31
26
23
23
19
12
13
15
13
10
8
14
16
15
13
14
15
14
9
14
12
11
9
9
10
7
4
2
5
2
-2
-3
-3
-5
-10
-8
-8
-7
-10
-12
-11
-12
-13
-15
-14
-14
-16
-16
-15
-15
-14
-17
-15
-15
-16
-18
-17
-14
-15
-17
-17
-15
-17
-18
-18
-15
-16
-16
-19
-17
-16
-16
-20
-16
-16
-16
-18
-20
-16
-17
-19
-19
-18
-17
-17
-15
-11
-3
39
137
170
107
86
59
52
39
23
-7
-50
-103
-173
-245
-316
-379
-431
-472
-500
-516
-534
-559
-579
-586
-594
-599
-603
-606
-604
-604
-603
-596
-589
-573
-551
-515
-477
-434
-378
-309
-245
-183
-124
-66
-15
28
63
101
132
152
163
173
185
198
202
212
224
233
240
246
259
270
280
289
302
313
322
331
345
357
366
371
384
393
400
403
406
412
414
415
410
410
404
394
381
372
357
338
320
303
285
264
243
224
207
190
169
154
141
128
113
102
93
84
80
64
59
53
48
40
38
33
30
27
26
24
21
17
17
20
17
14
14
16
17
14
16
19
20
21
20
26
27
26
23
26
28
26
25
24
24
16
10
10
10
5
3
-1
0
-1
-2
-2
-1
-3
-5
-7
-6
-4
-7
-10
-10
-7
-10
-11
-13
-13
-14
-16
-15
-13
-16
-17
-17
-15
-16
-16
-19
-16
-17
-18
-21
-18
-16
-18
-19
-18
-15
-17
-20
-17
-15
-18
-20
-18
-16
-14
-17
-18
-15
-14
-15
-13
-5
19
30
172
165
105
78
66
57
44
31
1
-38
-89
-158
-225
-294
-359
-411
-455
-487
-506
-526
-552
-572
-577
-586
-590
-599
-599
-605
-604
-603
-599
-591
-576
-556
-523
-485
-449
-402
-343
-281
-223
-168
-110
-54
-7
32
69
106
129
134
151
164
174
182
192
202
209
217
225
234
244
253
261
273
284
295
300
314
326
336
342
350
360
368
371
381
387
392
394
392
395
392
385
377
368
360
346
332
320
305
290
269
255
239
223
204
187
172
158
154
129
118
109
96
85
80
72
63
54
52
47
42
36
33
32
29
26
24
25
23
20
19
22
20
20
17
20
19
20
18
19
21
21
20
21
22
21
20
21
23
21
22
20
22
21
19
17
21
19
17
14
14
15
14
10
11
10
9
7
8
9
7
5
3
6
5
4
5
8
10
9
7
10
10
9
1
-1
-2
-4
-6
-9
-10
-15
-19
-19
-17
-21
-24
-19
-14
-14
-16
-17
-15
-14
-17
-17
-15
-12
-13
-18
-14
-13
-15
-17
-15
-14
-14
-15
-12
-8
1
33
126
187
138
87
71
66
59
49
36
17
-20
-34
-128
-179
-239
-305
-358
-392
-423
-449
-478
-508
-535
-554
-570
-578
-586
-594
-599
-600
-598
-595
-592
-580
-558
-533
-524
-462
-414
-356
-296
-233
-171
-110
-57
-10
32
70
106
135
159
176
190
194
207
220
229
236
247
259
268
271
286
301
309
318
328
341
352
362
368
381
392
402
409
416
421
426
425
423
425
420
414
406
396
383
378
351
337
320
302
278
262
245
226
206
189
174
157
142
129
117
106
94
83
77
70
60
54
51
47
47
37
37
36
31
28
29
29
24
20
21
23
23
18
22
22
20
19
16
22
22
20
19
23
24
24
20
24
24
23
20
23
24
24
22
22
25
22
19
19
21
18
15
13
16
13
10
7
11
9
10
6
5
7
3
1
3
3
0
-2
-2
0
-2
-4
-5
-1
-1
-4
-6
-5
-5
-7
-7
-7
-7
-7
-11
-8
-6
-9
-9
-8
-5
-5
-5
-3
-1
-1
0
1
3
1
1
1
-1
-3
-8
-9
-6
0
3
63
160
183
121
75
64
55
45
32
12
-17
-62
-123
-184
-249
-320
-383
-427
-461
-489
-514
-539
-559
-571
-575
-589
-590
-593
-597
-600
-597
-595
-593
-587
-571
-548
-519
-489
-451
-395
-333
-272
-208
-144
-86
-33
17
62
103
114
155
172
185
195
203
216
226
234
241
251
263
270
277
289
299
310
314
327
338
346
352
360
370
377
380
388
398
405
406
406
410
410
406
397
394
386
375
360
347
336
320
299
280
264
246
223
205
191
172
167
139
127
117
104
93
86
79
68
62
55
52
43
39
36
33
29
25
23
24
23
18
19
19
20
19
11
15
16
14
13
15
18
16
15
17
19
17
15
14
18
19
16
15
18
19
18
15
18
19
19
14
16
17
13
11
10
11
9
8
7
8
6
2
4
4
6
-1
-2
1
-1
0
-2
-3
-2
-2
-7
-5
-3
-7
-9
-7
-7
-8
-10
-9
-8
-9
-11
-11
-10
-8
-12
-12
-10
-11
-12
-13
-10
-11
-12
-14
-11
-11
-12
-16
-12
-12
-12
-13
-12
-9
-10
-9
-6
10
45
137
206
158
105
88
80
71
60
55
8
-36
-96
-165
-240
-313
-372
-427
-471
-499
-525
-554
-573
-582
-585
-592
-595
-598
-597
-597
-598
-596
-584
-568
-562
-503
-454
-399
-332
-266
-197
-132
-76
-24
21
63
100
125
143
158
167
173
181
192
201
207
214
224
232
236
249
260
268
274
282
295
306
315
323
336
343
353
358
366
374
381
382
386
390
389
384
380
376
367
363
337
324
306
285
266
251
231
210
192
176
161
145
130
117
107
94
83
74
69
61
51
47
45
43
42
35
34
33
28
24
26
27
25
23
25
29
27
24
25
27
28
24
25
27
26
27
25
28
27
25
23
25
24
21
17
19
18
16
12
14
15
13
9
8
9
8
3
3
4
3
-1
0
0
0
0
-4
-3
-2
-5
-7
-5
-5
-6
-9
-7
-5
-7
-11
-8
-7
-8
-13
-12
-9
-10
-13
-13
-11
-11
-13
-17
-14
-12
-14
-17
-14
-12
-14
-16
-12
-12
-14
-14
-14
-7
-5
15
87
180
165
95
71
63
52
48
11
-24
-80
-152
-225
-298
-366
-424
-468
-498
-524
-554
-574
-585
-590
-596
-601
-601
-600
-599
-598
-595
-584
-567
-560
-501
-450
-386
-313
-243
-171
-105
-45
3
52
99
131
147
160
173
185
191
200
211
220
222
231
239
248
250
261
270
279
285
294
306
315
324
331
344
356
360
367
375
383
386
387
387
390
388
383
375
366
353
349
320
304
286
261
242
224
203
182
162
147
134
119
102
94
84
74
64
58
53
48
41
37
36
35
32
29
31
30
30
28
29
27
27
24
26
28
27
24
24
30
28
26
26
26
26
21
22
24
21
19
16
16
16
13
10
11
11
7
3
3
3
3
0
2
2
-1
-5
-5
-3
-3
-6
-7
-6
-6
-6
-12
-12
-9
-11
-14
-12
-13
-14
-16
-16
-13
-14
-19
-16
-14
-15
-19
-19
-14
-17
-19
-21
-20
-18
-17
-22
-17
-20
-21
-21
-19
-15
-18
-19
-16
-11
-5
22
111
170
127
73
61
51
39
20
-9
-51
-112
-134
-260
-335
-399
-449
-487
-511
-536
-562
-583
-590
-593
-600
-603
-602
-599
-600
-599
-588
-571
-547
-514
-474
-416
-350
-328
-213
-147
-85
-31
15
58
96
127
147
165
175
180
187
192
199
206
210
215
223
226
229
236
246
257
261
271
281
291
298
306
315
324
327
332
341
346
352
353
357
363
365
362
361
359
352
343
335
327
312
308
278
264
246
227
206
190
174
152
133
118
107
93
81
73
64
56
46
41
40
34
29
23
24
21
20
15
17
17
13
11
15
17
14
11
12
14
12
11
12
12
15
10
11
13
12
8
9
11
11
9
7
8
8
5
2
5
4
2
-1
-1
0
-2
-6
-7
-4
-9
-9
-10
-9
-10
-12
-15
-11
-12
-14
-18
-15
-17
-20
-21
-19
-17
-20
-22
-22
-20
-24
-25
-23
-20
-20
-24
-24
-22
-21
-26
-25
-23
-23
-24
-26
-23
-24
-24
-26
-25
-25
-26
-27
-26
-23
-24
-26
-24
-20
-20
-20
-14
17
100
161
119
75
61
57
40
32
13
-24
-77
-138
-205
-283
-355
-411
-456
-495
-522
-547
-570
-586
-594
-597
-598
-602
-605
-603
-599
-598
-597
-588
-569
-542
-505
-465
-409
-342
-278
-214
-150
-87
-34
11
53
96
127
143
160
173
183
189
203
213
221
223
230
239
244
249
256
265
271
275
279
289
298
304
312
328
339
344
351
359
366
370
374
376
379
378
378
370
367
358
347
332
322
305
288
269
254
236
215
193
174
158
139
122
108
96
84
73
64
57
51
48
37
33
31
27
21
24
23
21
19
19
21
19
17
18
22
20
19
20
22
21
20
20
24
22
20
18
18
21
18
17
17
19
16
13
14
15
13
9
8
9
7
2
2
3
4
-1
-3
0
-2
-3
-8
-6
-7
-10
-12
-11
-10
-12
-13
-13
-11
-13
-15
-16
-14
-15
-17
-18
-16
-16
-18
-20
-13
-17
-18
-21
-17
-20
-19
-22
-20
-18
-19
-19
-19
-18
-20
-20
-21
-18
-20
-22
-21
-19
-18
-17
-15
-7
21
37
152
108
71
60
52
48
43
24
-6
-46
-96
-155
-220
-282
-333
-383
-423
-456
-492
-532
-558
-569
-579
-585
-587
-596
-596
-593
-594
-593
-585
-573
-550
-520
-479
-430
-371
-308
-243
-181
-120
-67
-18
27
63
95
117
134
144
147
164
177
185
193
201
209
215
217
219
229
237
243
246
252
260
266
269
279
292
301
309
319
329
335
337
344
350
354
353
353
353
352
347
342
337
328
317
300
287
273
256
234
215
201
183
162
146
133
118
113
90
84
72
61
53
47
43
36
29
28
30
25
21
21
24
23
17
19
20
19
15
18
20
21
20
17
21
21
18
16
20
21
21
16
19
21
17
16
17
18
13
11
12
12
11
9
6
9
9
8
3
2
1
1
-4
0
0
-4
-8
-5
-4
-6
-9
-6
-6
-7
-10
-10
-9
-12
-14
-14
-11
-14
-15
-17
-15
-16
-16
-21
-16
-18
-19
-20
-17
-18
-18
-21
-21
-18
-19
-21
-20
-19
-19
-23
-21
-16
-19
-18
-22
-17
-17
-17
-13
4
55
149
169
107
73
56
41
28
8
-21
-61
-104
-155
-203
-244
-280
-319
-376
-393
-470
-496
-527
-553
-568
-576
-580
-588
-591
-591
-590
-587
-584
-569
-544
-512
-473
-419
-358
-293
-228
-166
-109
-59
-43
29
73
103
123
138
151
160
169
177
185
194
197
203
210
217
224
229
236
247
254
260
269
277
286
289
301
311
319
326
332
340
347
350
353
360
363
364
363
363
361
355
349
340
332
321
306
292
280
264
259
231
218
200
181
165
154
140
123
109
97
88
75
64
54
48
39
30
29
25
22
18
18
21
20
19
15
15
15
14
12
13
14
11
11
12
15
15
12
14
15
14
12
11
14
12
10
11
11
11
9
6
6
8
4
3
3
3
0
-1
-1
-2
-4
-7
-6
-5
-7
-10
-10
-8
-11
-14
-13
-13
-13
-13
-15
-14
-14
-15
-18
-16
-15
-16
-19
-16
-14
-18
-17
-16
-15
-15
-17
-17
-13
-14
-19
-15
-13
-16
-18
-18
-15
-15
-17
-20
-18
-15
-16
-17
-16
-16
-18
-20
-15
-15
-16
-16
-17
-12
-11
-1
41
135
183
180
77
66
54
41
29
14
-19
-62
-116
-178
-241
-312
-374
-418
-453
-481
-509
-534
-555
-570
-579
-585
-587
-588
-590
-592
-587
-586
-584
-570
-550
-521
-485
-437
-373
-304
-240
-174
-110
-54
-6
36
77
110
131
143
158
170
178
181
194
204
214
218
227
236
244
252
258
269
279
289
297
308
320
327
334
347
356
364
369
377
384
389
390
390
391
389
384
377
370
358
346
334
320
305
286
269
252
234
214
196
182
169
151
135
123
113
99
95
75
70
61
52
46
42
38
30
28
27
24
21
19
18
19
17
14
13
14
13
13
16
20
18
20
18
22
22
23
21
25
25
25
24
25
26
19
14
14
13
9
4
1
3
-2
-5
-6
-4
-3
-2
-4
-4
-3
-5
-9
-5
-8
-9
-10
-10
-10
-13
-15
-17
-14
-14
-17
-18
-16
-17
-17
-19
-17
-17
-18
-21
-19
-18
-20
-23
-20
-20
-20
-22
-20
-18
-21
-21
-22
-20
-22
-22
-21
-20
-18
-23
-23
-18
-20
-21
-21
-18
-20
-18
-20
-14
-10
9
68
161
173
109
70
58
47
34
14
-9
-53
-111
-182
-252
-320
-389
-409
-477
-500
-517
-534
-554
-566
-574
-581
-590
-591
-592
-594
-594
-593
-586
-581
-565
-539
-506
-472
-430
-371
-305
-243
-223
-120
-59
-13
30
68
102
130
144
157
171
181
187
195
206
217
225
233
244
256
266
274
284
296
303
307
323
338
346
354
364
373
382
387
393
398
403
402
402
401
400
393
386
379
369
358
343
327
314
296
289
261
246
223
205
188
172
158
141
124
114
102
91
82
74
66
56
48
44
42
38
30
28
25
22
21
17
15
13
10
7
9
8
5
3
7
10
5
2
5
5
4
2
3
4
6
3
5
7
7
6
3
6
4
3
0
2
4
2
1
3
3
2
2
6
6
7
4
4
6
2
2
2
3
0
-1
-7
-8
-11
-16
-20
-20
-24
-25
-27
-28
-25
-22
-24
-23
-23
-24
-26
-26
-24
-23
-24
-24
-23
-23
-24
-27
-22
-24
-25
-27
-26
-26
-26
-27
-26
-25
-28
-27
-24
-23
-24
-23
-21
-10
21
104
160
117
69
60
49
43
33
14
-18
-68
-129
-199
-270
-334
-384
-426
-459
-482
-511
-540
-564
-572
-579
-586
-591
-595
-593
-594
-593
-578
-558
-527
-495
-451
-395
-329
-259
-194
-127
-70
-21
20
60
96
123
137
151
164
174
180
192
203
210
213
227
238
248
256
269
282
291
304
314
326
335
343
354
364
374
379
383
387
391
393
389
388
384
377
373
354
344
328
312
295
278
259
238
217
198
182
164
146
132
119
105
90
80
74
63
53
48
44
38
34
26
23
20
17
13
13
10
9
6
6
7
5
3
6
7
5
3
4
7
7
4
6
8
7
7
6
9
8
5
6
8
8
4
3
5
5
3
-1
1
1
-3
-5
-4
-3
-6
-8
-9
-6
-10
-11
-14
-12
-12
-16
-16
-15
-15
-18
-19
-18
-19
-21
-22
-20
-20
-22
-23
-23
-20
-22
-22
-24
-20
-21
-22
-19
-15
-13
-13
-14
-13
-14
-15
-14
-14
-12
-17
-22
-22
-21
-23
-26
-19
8
87
171
143
79
57
54
30
21
1
-35
-86
-153
-229
-307
-381
-430
-468
-496
-522
-547
-566
-580
-587
-590
-593
-599
-603
-602
-597
-593
-590
-557
-521
-487
-443
-378
-308
-240
-173
-107
-50
-4
39
77
108
131
144
155
169
180
188
195
205
218
227
229
244
257
268
276
287
298
307
318
327
340
350
357
363
373
380
384
382
384
387
382
375
369
363
349
344
320
305
287
267
250
231
210
192
173
157
143
124
111
98
87
76
64
57
52
44
35
31
28
24
22
15
17
11
9
8
8
7
6
4
5
6
6
4
7
6
5
3
5
8
6
5
6
10
10
9
7
9
9
4
5
6
6
3
1
3
1
-1
-2
-1
-1
-4
-7
-8
-5
-6
-11
-13
-9
-10
-11
-15
-13
-15
-17
-17
-16
-17
-19
-21
-19
-20
-19
-22
-20
-20
-21
-27
-23
-22
-21
-26
-23
-20
-22
-23
-26
-22
-22
-25
-29
-24
-23
-27
-26
-24
-21
-22
-23
-12
18
102
176
138
78
55
40
23
0
-39
-54
-149
-211
-267
-322
-370
-419
-478
-519
-547
-566
-581
-588
-597
-597
-598
-600
-604
-599
-594
-588
-572
-541
-498
-447
-430
-313
-241
-175
-120
-65
-13
30
66
93
115
128
139
146
156
166
172
178
187
193
197
203
209
217
223
224
237
246
253
257
265
275
285
290
295
306
314
320
322
330
334
339
338
343
345
344
339
333
329
319
316
296
286
270
253
237
224
207
190
173
158
141
127
110
97
86
73
63
54
47
40
33
28
26
23
20
13
13
12
10
9
10
9
7
5
7
7
6
5
7
9
6
5
3
7
5
1
5
6
7
6
1
5
4
2
-1
0
0
-3
-5
-4
-4
-7
-10
-8
-9
-12
-13
-13
-13
-15
-19
-17
-17
-17
-17
-20
-20
-21
-25
-26
-23
-23
-25
-28
-26
-24
-27
-30
-27
-27
-29
-32
-31
-27
-29
-32
-30
-28
-29
-31
-32
-30
-31
-33
-32
-29
-30
-31
-34
-32
-30
-31
-34
-29
-30
-33
-33
-32
-30
-30
-32
-30
-28
-21
-18
59
147
148
86
56
50
39
27
14
-11
-51
-109
-176
-237
-304
-371
-423
-466
-491
-517
-546
-569
-582
-592
-595
-603
-601
-605
-606
-605
-601
-597
-590
-575
-541
-501
-452
-390
-319
-251
-188
-130
-73
-26
16
50
86
113
129
132
147
159
162
168
176
181
187
192
198
208
217
224
228
237
246
255
261
269
277
286
293
300
312
318
321
331
342
345
349
354
359
360
359
357
354
349
341
329
322
310
294
276
259
247
228
206
191
175
160
154
126
114
100
86
76
68
60
50
41
37
33
27
21
22
20
17
13
13
14
14
11
12
15
14
13
13
16
17
13
12
15
16
13
12
12
13
11
9
10
11
8
5
7
9
7
4
3
5
1
1
-4
-3
-3
-7
-8
-5
-7
-10
-12
-11
-10
-14
-16
-16
-14
-17
-20
-18
-17
-19
-21
-22
-19
-20
-22
-24
-22
-22
-25
-24
-25
-23
-26
-26
-24
-23
-25
-27
-24
-25
-27
-30
-27
-25
-26
-30
-27
-23
-27
-28
-29
-26
-26
-30
-29
-26
-26
-26
-26
-23
-16
8
86
151
108
59
45
34
18
-2
-36
-76
-117
-173
-192
-268
-304
-345
-393
-451
-494
-524
-548
-572
-587
-595
-601
-605
-605
-604
-604
-606
-599
-588
-572
-546
-511
-468
-414
-395
-283
-212
-152
-96
-42
7
50
85
109
130
143
152
161
171
181
186
191
200
209
215
222
231
240
248
251
263
274
280
287
295
306
314
319
325
333
339
341
344
351
353
354
353
356
360
358
350
341
337
322
318
296
284
267
250
233
217
199
181
163
147
132
115
100
86
75
64
54
47
40
32
27
22
23
18
16
11
14
11
12
9
9
11
12
12
11
13
12
9
12
14
14
11
11
12
12
9
12
13
11
9
7
6
8
4
2
1
3
1
-3
-2
-2
-4
-7
-7
-7
-11
-11
-11
-11
-12
-13
-16
-12
-14
-15
-18
-16
-19
-21
-21
-20
-19
-22
-25
-24
-22
-22
-25
-26
-22
-22
-25
-24
-23
-24
-26
-24
-23
-25
-24
-29
-27
-25
-27
-27
-25
-25
-27
-28
-27
-27
-28
-28
-26
-24
-25
-26
-23
-19
-7
41
136
156
96
77
44
32
12
-17
-55
-96
-148
-207
-260
-299
-340
-392
-447
-491
-522
-546
-567
-584
-589
-596
-600
-603
-599
-600
-601
-595
-584
-566
-537
-497
-445
-382
-317
-249
-180
-123
-72
-23
25
66
99
118
137
150
158
166
175
186
189
191
201
209
214
218
227
238
243
247
254
266
273
282
287
296
305
313
319
328
334
340
342
348
354
355
354
352
353
350
341
333
326
312
300
286
272
257
240
221
209
193
178
159
142
130
116
103
92
86
75
71
57
50
43
32
23
21
20
13
8
10
10
8
8
8
8
4
2
3
5
5
1
3
6
5
4
4
7
6
3
3
6
5
5
4
5
4
3
0
0
2
0
-6
-4
-3
-6
-10
-9
-6
-11
-12
-15
-13
-14
-16
-18
-16
-17
-18
-20
-18
-18
-21
-24
-22
-22
-24
-23
-24
-22
-21
-24
-25
-21
-22
-24
-26
-22
-22
-25
-27
-25
-23
-25
-26
-24
-23
-25
-28
-24
-24
-28
-27
-25
-22
-24
-26
-25
-22
-26
-26
-28
-24
-23
-24
-25
-20
-14
-3
51
149
166
103
69
59
49
36
16
-10
-55
-117
-185
-253
-322
-385
-402
-470
-497
-520
-548
-571
-583
-588
-596
-601
-601
-600
-602
-603
-595
-584
-568
-538
-496
-447
-388
-323
-251
-181
-119
-100
-14
29
66
100
122
140
153
159
170
181
190
197
201
211
219
223
233
243
251
259
266
275
287
296
298
314
329
334
341
350
359
368
372
375
381
383
382
380
376
374
366
356
347
337
322
305
289
276
256
251
219
205
186
169
151
141
123
109
96
88
76
66
57
53
48
43
39
36
36
33
29
26
26
22
19
14
16
13
9
5
6
3
1
0
2
5
5
5
8
8
6
5
6
8
6
5
5
10
9
7
6
8
5
3
0
2
2
-3
-4
-3
-2
-6
-8
-7
-7
-10
-13
-12
-11
-14
-16
-14
-12
-13
-15
-17
-14
-18
-18
-19
-15
-16
-20
-19
-19
-17
-16
-20
-18
-17
-17
-20
-21
-16
-18
-21
-19
-18
-18
-19
-21
-17
-19
-20
-23
-19
-17
-18
-20
-19
-16
-18
-18
-10
6
59
146
146
90
63
52
42
31
13
5
-74
-133
-205
-277
-349
-405
-450
-486
-509
-525
-549
-572
-586
-592
-596
-604
-608
-607
-603
-601
-599
-587
-566
-538
-527
-460
-400
-334
-270
-207
-142
-83
-37
6
51
89
119
139
152
166
174
181
193
203
210
219
229
240
248
252
269
280
287
297
308
322
329
338
344
359
367
374
381
390
396
398
400
402
404
400
395
391
385
371
366
347
335
316
297
278
263
245
224
205
191
175
157
140
127
116
101
88
79
72
61
53
47
43
35
33
26
26
20
16
14
15
12
8
7
8
7
6
6
7
9
7
7
9
9
8
6
6
8
8
7
6
9
8
5
4
6
6
3
2
3
5
7
6
8
9
7
5
5
5
5
3
1
2
0
-1
-11
-10
-14
-19
-21
-20
-23
-27
-27
-23
-20
-23
-25
-22
-22
-25
-27
-27
-24
-26
-29
-26
-25
-24
-26
-27
-24
-26
-27
-30
-26
-26
-28
-29
-27
-29
-27
-30
-26
-26
-27
-27
-24
-15
3
79
158
128
70
59
43
37
25
7
-27
-80
-148
-226
-304
-371
-427
-471
-499
-517
-541
-569
-586
-594
-599
-606
-613
-613
-609
-610
-611
-593
-569
-539
-502
-457
-402
-336
-268
-200
-133
-70
-20
26
71
111
138
152
166
180
191
199
212
224
237
241
254
267
278
285
296
310
320
331
341
357
368
375
382
390
399
404
406
408
411
408
401
393
386
370
365
341
325
304
283
262
246
227
205
187
169
156
140
124
112
99
87
75
68
62
54
43
40
37
31
29
21
21
17
11
12
11
11
8
7
7
7
4
3
4
5
3
1
2
6
4
1
3
5
4
4
2
7
4
3
2
6
6
4
3
3
1
0
0
-1
-1
-4
-6
-4
-5
-7
-8
-10
-6
-11
-13
-13
-10
-10
-13
-11
-7
-5
-7
-6
-3
-5
-7
-9
-6
-6
-9
-10
-10
-15
-18
-22
-25
-22
-25
-28
-32
-29
-28
-28
-25
-25
-26
-28
-29
-26
-24
-26
-26
-22
-18
-12
21
117
179
123
70
60
56
47
43
16
-16
-65
-126
-186
-244
-306
-353
-390
-418
-450
-489
-527
-549
-562
-576
-589
-596
-599
-605
-606
-604
-588
-572
-565
-500
-446
-381
-309
-235
-168
-103
-43
7
49
88
118
135
154
165
174
185
199
211
216
225
238
251
260
262
280
294
303
310
321
333
343
352
361
373
383
387
392
397
404
402
399
397
394
384
371
362
350
332
326
297
278
257
234
213
196
177
158
140
129
115
101
89
82
71
62
52
44
40
36
29
25
25
21
19
12
14
11
8
6
8
6
3
2
5
6
2
1
3
5
4
4
4
7
6
3
6
9
7
5
7
7
7
2
1
2
3
0
-2
-1
1
0
-3
-4
-5
-7
-11
-9
-9
-12
-14
-13
-13
-15
-15
-18
-17
-16
-20
-22
-19
-19
-22
-24
-21
-20
-22
-26
-24
-23
-26
-27
-26
-22
-26
-27
-25
-22
-26
-27
-27
-25
-25
-28
-29
-24
-20
-21
-21
-15
-13
-14
-10
0
37
128
185
134
77
59
44
31
16
-16
-30
-131
-202
-281
-359
-418
-462
-501
-527
-556
-576
-594
-606
-611
-614
-615
-618
-620
-618
-613
-612
-604
-586
-557
-527
-518
-445
-386
-318
-257
-191
-127
-70
-21
26
70
106
128
142
157
169
178
184
197
207
214
220
230
238
245
248
263
276
283
291
300
310
320
326
335
346
354
358
366
374
380
382
385
392
396
395
389
391
390
380
377
363
352
338
322
307
290
272
253
234
216
199
179
162
148
134
120
104
94
84
72
62
54
48
42
39
28
26
23
16
13
12
10
4
3
3
2
0
0
2
3
-1
2
0
2
1
-2
0
3
2
3
0
2
1
2
1
5
4
1
-1
3
2
-1
-2
0
1
-2
-6
-5
-3
-7
-11
-11
-9
-10
-12
-13
-12
-15
-17
-18
-14
-18
-21
-21
-20
-19
-23
-23
-21
-22
-24
-27
-25
-23
-24
-29
-26
-24
-26
-27
-26
-26
-27
-28
-30
-26
-24
-28
-30
-28
-26
-29
-30
-29
-27
-28
-29
-28
-25
-27
-29
-27
-23
-27
-27
-29
-25
-25
-23
-6
51
151
163
95
63
53
41
30
18
-4
-39
-88
-145
-209
-280
-357
-419
-464
-507
-518
-559
-582
-600
-610
-613
-615
-618
-623
-624
-620
-618
-618
-615
-601
-581
-555
-518
-466
-403
-332
-262
-196
-137
-81
-65
12
54
93
122
138
154
164
173
181
193
200
204
210
218
225
232
235
245
253
256
264
273
284
290
292
307
315
323
329
336
348
353
357
367
372
376
377
377
379
379
372
366
359
349
336
319
306
295
275
271
239
219
199
178
159
144
128
111
96
86
75
63
55
50
45
37
32
28
29
23
19
19
19
16
15
16
15
14
12
12
14
12
9
7
13
14
12
10
12
13
9
8
11
10
8
4
8
7
6
5
2
3
2
-3
-3
-2
-2
-6
-8
-8
-7
-10
-12
-11
-11
-14
-19
-16
-14
-18
-22
-22
-20
-20
-20
-23
-21
-20
-24
-24
-21
-21
-24
-25
-24
-24
-25
-27
-25
-24
-28
-26
-24
-25
-27
-27
-26
-25
-27
-28
-30
-27
-25
-29
-28
-26
-26
-30
-30
-28
-27
-29
-32
-27
-25
-27
-27
-24
-15
5
65
159
176
111
90
59
51
42
26
4
-29
-80
-138
-207
-273
-345
-407
-460
-498
-523
-554
-581
-599
-607
-614
-620
-620
-621
-624
-624
-624
-620
-616
-605
-583
-551
-509
-454
-382
-307
-240
-175
-110
-52
-6
35
76
113
132
145
152
164
175
182
184
194
203
208
212
216
226
234
238
243
254
263
269
274
285
295
302
311
324
333
342
349
360
369
372
373
380
384
383
380
377
370
360
345
331
318
302
280
257
240
222
198
181
164
148
132
115
102
92
80
75
60
53
46
37
34
33
29
26
23
24
24
20
18
19
19
19
14
16
21
19
16
18
19
18
16
14
17
18
13
12
13
14
12
11
11
11
9
7
5
6
3
0
0
1
-3
-4
-5
-2
-6
-6
-8
-9
-11
-15
-13
-13
-12
-18
-18
-15
-15
-18
-20
-19
-20
-22
-23
-21
-19
-22
-25
-24
-22
-21
-22
-24
-21
-20
-24
-26
-23
-22
-26
-27
-25
-23
-25
-27
-25
-23
-25
-27
-26
-23
-24
-26
-26
-23
-24
-24
-24
-20
-18
-9
31
128
196
137
74
59
50
35
22
1
-38
-97
-166
-236
-310
-385
-440
-484
-515
-541
-550
-592
-605
-613
-619
-623
-624
-626
-628
-628
-624
-617
-606
-584
-550
-507
-451
-382
-307
-235
-164
-99
-39
12
56
68
125
149
163
173
186
197
207
215
223
234
241
248
252
261
268
271
276
286
291
297
302
312
321
329
332
348
362
367
372
379
386
392
395
396
396
396
388
381
374
366
352
337
325
311
291
273
256
238
216
208
178
161
144
126
112
100
90
76
67
58
51
43
38
34
31
25
22
22
22
18
14
14
13
12
11
13
14
13
10
11
12
14
10
10
13
12
10
9
11
11
7
7
10
10
7
5
6
6
3
1
0
3
0
-4
-6
-4
-5
-7
-10
-9
-9
-12
-15
-11
-12
-19
-19
-18
-16
-17
-22
-21
-20
-21
-23
-24
-23
-23
-27
-26
-25
-24
-27
-29
-27
-26
-28
-30
-27
-29
-29
-32
-30
-27
-29
-32
-31
-29
-30
-32
-33
-31
-31
-33
-33
-32
-31
-32
-33
-29
-29
-31
-26
-9
50
155
177
105
60
41
18
-5
-40
-90
-108
-213
-267
-314
-362
-410
-468
-519
-557
-584
-603
-618
-627
-630
-633
-634
-637
-635
-629
-613
-592
-554
-502
-438
-360
-336
-203
-134
-73
-21
30
77
108
125
138
153
164
171
177
189
197
202
207
218
226
232
237
248
254
261
263
279
290
296
304
313
324
332
338
346
356
360
363
367
372
374
373
368
364
360
349
333
325
311
293
287
251
233
213
189
169
153
133
114
99
88
77
64
56
53
43
33
25
22
19
13
8
7
8
5
5
1
2
1
0
1
1
1
-1
-1
0
3
-1
-1
-1
1
0
-2
0
1
-1
-3
-1
0
-1
-2
-6
-5
-5
-8
-10
-8
-11
-13
-14
-13
-14
-16
-18
-17
-18
-20
-23
-23
-21
-23
-25
-23
-23
-25
-28
-27
-26
-27
-28
-28
-27
-26
-29
-30
-27
-29
-31
-33
-30
-30
-31
-34
-32
-30
-31
-33
-32
-31
-30
-31
-33
-31
-32
-32
-32
-32
-32
-34
-31
-30
-31
-33
-34
-29
-28
-27
-23
7
100
161
106
62
52
43
39
4
-35
-96
-171
-247
-321
-393
-448
-494
-529
-555
-588
-612
-618
-627
-634
-637
-638
-638
-639
-639
-631
-619
-600
-592
-528
-473
-408
-334
-258
-184
-116
-64
-14
35
74
106
127
142
154
164
170
184
192
199
203
213
220
228
229
242
250
258
264
275
284
293
299
309
322
331
336
345
355
363
369
374
381
385
386
384
384
382
373
370
356
346
332
315
299
283
265
243
224
208
190
173
155
144
132
118
104
94
81
68
56
50
42
31
27
19
17
11
5
7
8
11
8
8
10
12
7
6
9
10
7
6
7
11
9
7
9
12
11
9
7
9
8
3
3
5
6
0
-1
1
0
-5
-8
-6
-6
-10
-13
-12
-11
-11
-15
-14
-13
-15
-18
-19
-17
-18
-20
-21
-19
-19
-21
-23
-20
-21
-23
-24
-22
-24
-24
-26
-26
-24
-25
-25
-24
-24
-26
-28
-26
-24
-25
-26
-26
-25
-25
-28
-29
-25
-26
-28
-30
-27
-26
-28
-27
-24
-22
-17
8
99
161
106
83
50
42
27
3
-35
-97
-173
-256
-337
-405
-456
-501
-531
-553
-584
-609
-622
-626
-632
-637
-643
-640
-638
-636
-635
-613
-587
-549
-505
-440
-364
-290
-223
-149
-81
-25
18
64
106
132
148
160
173
183
193
198
211
220
227
230
244
254
264
273
285
297
307
316
325
339
350
355
366
377
387
393
399
407
411
411
410
412
409
401
397
383
371
357
339
321
304
283
259
243
222
202
183
164
150
133
116
101
93
82
68
56
51
45
38
35
28
25
21
16
13
15
12
9
8
10
8
7
6
7
6
5
6
5
8
7
5
5
9
5
4
6
7
7
5
7
12
11
10
11
11
9
5
6
7
6
3
0
-1
-5
-12
-18
-16
-19
-23
-25
-25
-25
-25
-27
-27
-25
-27
-31
-30
-28
-29
-30
-31
-29
-29
-32
-34
-30
-31
-34
-36
-33
-31
-34
-34
-34
-33
-33
-36
-38
-34
-35
-38
-37
-35
-33
-35
-35
-32
-32
-32
-32
-25
-4
70
154
129
69
49
45
28
14
-18
-70
-138
-214
-299
-387
-458
-501
-530
-554
-572
-595
-612
-625
-631
-636
-639
-644
-645
-643
-638
-628
-623
-583
-546
-505
-461
-400
-332
-263
-199
-131
-70
-14
28
68
101
130
148
160
175
185
196
206
220
232
243
247
265
279
290
301
313
327
340
349
361
373
381
391
397
407
411
415
418
426
426
423
417
412
406
392
387
363
348
330
308
289
271
251
229
211
193
174
155
139
127
110
96
82
77
66
55
46
42
37
30
27
22
20
16
9
6
5
3
-1
-2
-2
-2
-5
-6
-5
-7
-6
-8
-7
-6
-7
-6
-6
-5
-5
-6
-6
-4
-5
-8
-8
-4
-6
-8
-7
-6
-5
-10
-11
-9
-10
-14
-16
-14
-14
-19
-21
-18
-18
-21
-24
-23
-21
-25
-28
-29
-27
-25
-29
-28
-26
-27
-27
-26
-21
-21
-23
-23
-20
-22
-22
-26
-22
-21
-24
-27
-30
-30
-36
-40
-42
-41
-43
-48
-48
-45
-42
-41
-41
-39
-39
-45
-44
-41
-38
-37
-31
-3
75
162
178
83
58
50
37
29
16
-14
-57
-114
-173
-234
-301
-356
-392
-423
-452
-483
-515
-551
-578
-595
-604
-616
-626
-629
-636
-637
-640
-640
-631
-616
-594
-568
-532
-492
-443
-383
-315
-251
-191
-135
-79
-28
15
48
81
111
133
144
148
166
180
189
195
207
218
227
234
244
254
265
271
284
297
307
313
322
334
344
352
359
372
380
385
386
396
400
402
402
402
400
398
388
382
374
364
349
336
324
307
290
272
259
241
220
203
190
175
158
152
128
115
102
89
78
71
60
48
43
35
30
22
17
15
12
4
1
1
0
-4
-7
-6
-6
-10
-12
-12
-10
-11
-15
-14
-11
-11
-13
-13
-10
-11
-13
-11
-9
-10
-15
-12
-9
-9
-8
-13
-9
-9
-9
-10
-12
-10
-13
-14
-15
-13
-17
-16
-17
-16
-17
-20
-22
-21
-22
-24
-27
-25
-25
-28
-29
-29
-29
-30
-32
-30
-31
-33
-37
-35
-33
-34
-37
-38
-35
-37
-37
-39
-40
-40
-42
-42
-41
-39
-40
-41
-41
-39
-42
-43
-42
-41
-42
-43
-44
-41
-43
-45
-44
-41
-41
-45
-42
-40
-36
-33
5
95
164
128
73
56
48
37
33
6
-24
-82
-153
-225
-302
-386
-452
-500
-537
-565
-596
-620
-634
-643
-652
-655
-655
-656
-657
-659
-655
-651
-647
-644
-604
-567
-523
-469
-397
-325
-255
-188
-118
-59
-12
28
73
109
126
139
151
165
173
180
187
199
206
213
215
231
241
249
256
269
277
286
294
306
316
327
334
344
355
361
366
372
381
387
390
393
398
397
395
394
388
382
373
361
354
339
323
304
288
270
247
228
207
192
173
152
135
119
105
88
76
67
56
46
43
32
26
21
14
12
10
7
2
0
1
-2
-5
-4
-3
-3
-4
-8
-3
-4
-5
-6
-3
-1
-4
-3
-3
-1
-2
-5
-4
-3
-4
-7
-6
-5
-8
-10
-11
-8
-11
-13
-15
-13
-13
-16
-20
-20
-17
-22
-24
-23
-22
-26
-26
-28
-29
-28
-35
-34
-34
-34
-35
-37
-36
-37
-40
-39
-36
-37
-37
-41
-38
-40
-39
-40
-42
-40
-40
-43
-43
-41
-41
-43
-43
-40
-43
-44
-44
-39
-41
-46
-44
-43
-40
-43
-44
-41
-41
-43
-44
-42
-40
-37
-30
9
107
173
114
57
46
33
15
3
-21
-68
-128
-202
-274
-355
-432
-489
-532
-562
-586
-594
-632
-641
-648
-655
-656
-657
-659
-661
-659
-655
-651
-640
-616
-582
-538
-489
-421
-343
-270
-200
-130
-67
-16
26
38
103
124
137
148
162
176
187
192
202
209
217
221
229
239
245
250
259
267
276
280
288
299
308
313
316
330
339
347
353
361
366
375
370
375
376
373
365
359
350
336
320
302
285
265
240
219
201
180
160
152
126
111
95
80
70
59
48
37
32
29
22
17
12
11
9
4
3
4
3
-1
-2
0
0
-1
-2
-3
-1
-2
-2
-2
0
-1
-2
-3
-1
0
-2
-4
-3
-3
-5
-7
-5
-6
-8
-10
-9
-9
-12
-14
-14
-15
-17
-20
-17
-17
-22
-24
-24
-23
-23
-28
-29
-26
-28
-32
-30
-29
-31
-35
-33
-32
-33
-34
-37
-37
-34
-35
-39
-35
-35
-38
-39
-39
-37
-40
-43
-39
-38
-38
-40
-42
-38
-38
-41
-41
-39
-40
-40
-41
-42
-41
-41
-42
-40
-38
-38
-38
-33
-24
7
98
177
132
69
50
41
32
19
-10
-57
-121
-196
-277
-302
-421
-472
-515
-550
-579
-608
-628
-640
-645
-650
-655
-659
-659
-655
-654
-652
-638
-612
-575
-533
-475
-406
-332
-264
-244
-123
-62
-12
35
82
116
133
148
162
174
183
193
203
216
223
229
238
250
257
263
272
282
289
296
297
312
318
323
329
339
345
352
356
360
368
376
379
384
388
384
380
377
372
363
350
339
325
308
293
287
256
242
220
199
180
163
143
125
110
98
84
70
59
53
43
34
29
27
19
16
12
12
10
6
4
4
6
3
3
5
5
5
3
2
6
6
6
5
8
5
3
4
7
6
4
1
5
4
1
0
1
1
0
-3
-5
-4
-7
-10
-10
-10
-11
-16
-15
-13
-16
-18
-21
-18
-19
-21
-23
-22
-24
-24
-26
-26
-25
-26
-29
-29
-26
-28
-30
-30
-30
-31
-35
-35
-31
-32
-35
-33
-33
-33
-35
-35
-34
-34
-35
-37
-36
-33
-36
-36
-35
-31
-33
-36
-36
-33
-31
-31
-21
25
132
185
104
48
32
9
-26
-68
-124
-194
-217
-314
-361
-418
-486
-539
-571
-601
-627
-640
-645
-652
-656
-657
-657
-655
-651
-637
-609
-575
-527
-464
-395
-314
-224
-199
-81
-20
34
78
112
134
145
156
171
180
189
196
206
215
221
227
235
246
251
259
266
276
285
292
294
311
321
328
336
345
354
361
366
371
380
381
381
380
384
378
372
365
358
347
330
318
303
284
265
258
229
210
190
172
156
140
122
105
95
85
72
57
47
37
28
17
13
10
6
-1
-4
-2
0
0
-1
-2
-2
-5
-6
-6
-4
-4
-8
-4
-2
-5
-6
-4
0
-4
-5
-7
-3
-3
-6
-8
-7
-8
-8
-9
-11
-10
-13
-16
-15
-16
-19
-21
-21
-21
-24
-24
-26
-26
-27
-31
-31
-29
-28
-34
-34
-30
-31
-31
-32
-30
-30
-32
-34
-32
-32
-33
-35
-34
-33
-33
-33
-33
-32
-32
-33
-35
-32
-33
-34
-36
-32
-31
-35
-36
-35
-33
-35
-38
-36
-32
-32
-33
-34
-31
-29
-24
9
98
178
138
74
59
46
27
8
-24
-77
-146
-169
-301
-384
-451
-501
-536
-559
-585
-615
-633
-639
-647
-652
-655
-653
-653
-655
-651
-640
-625
-602
-567
-521
-469
-409
-387
-268
-203
-137
-78
-25
18
56
91
123
144
158
167
179
190
199
208
216
227
234
242
247
259
268
276
280
297
307
316
326
336
345
352
361
369
379
385
389
396
403
406
408
409
408
405
397
391
386
373
358
352
329
311
290
269
252
234
213
194
176
162
143
127
113
105
89
76
66
61
50
42
36
33
27
22
19
16
12
9
6
7
6
6
3
3
5
4
1
1
2
3
-1
2
7
9
11
11
15
14
13
11
14
16
13
13
14
12
9
2
1
0
-7
-11
-14
-12
-17
-17
-15
-12
-11
-15
-21
-16
-17
-20
-21
-20
-20
-22
-25
-23
-24
-24
-28
-25
-22
-25
-28
-30
-26
-30
-32
-32
-30
-31
-31
-35
-33
-28
-33
-35
-32
-30
-32
-33
-29
-29
-29
-30
-30
-28
-29
-30
-28
-25
-22
-17
21
117
186
132
73
62
53
39
34
-9
-60
-134
-213
-292
-374
-444
-493
-524
-547
-572
-602
-621
-629
-636
-646
-647
-647
-647
-647
-645
-634
-617
-594
-585
-519
-473
-413
-343
-266
-195
-130
-72
-15
29
66
103
134
155
168
177
189
202
210
220
228
242
252
258
261
282
293
302
311
324
336
347
355
369
381
389
396
404
412
416
419
423
425
427
421
418
413
407
393
387
367
353
334
313
298
279
258
237
219
204
186
167
152
140
123
109
97
86
76
65
56
51
45
37
34
30
26
21
16
14
15
10
7
7
9
8
4
4
6
5
1
2
4
4
1
2
6
6
6
4
5
8
4
3
6
5
2
-1
2
5
3
0
0
-2
-2
-6
-6
-3
-6
-9
-10
-9
-10
-13
-15
-13
-13
-14
-17
-16
-15
-18
-20
-21
-19
-18
-19
-15
-13
-13
-14
-14
-10
-12
-14
-16
-13
-12
-15
-18
-21
-25
-29
-32
-32
-34
-37
-39
-39
-32
-32
-32
-33
-31
-32
-31
-30
-23
-10
39
144
186
121
72
63
47
36
20
-8
-49
-103
-168
-234
-302
-360
-406
-442
-464
-488
-523
-555
-582
-597
-609
-623
-633
-637
-641
-646
-648
-642
-634
-622
-600
-565
-526
-479
-413
-337
-263
-194
-126
-64
-10
35
73
114
144
160
173
185
200
211
220
221
243
254
264
272
285
297
309
320
332
347
358
367
379
391
401
409
418
426
429
431
435
438
438
432
430
420
415
401
387
375
360
342
321
304
284
266
244
224
209
189
166
153
139
122
106
93
85
72
62
59
48
40
32
26
24
22
15
12
12
12
6
4
2
3
1
-4
-3
-1
-2
-4
-1
-2
-2
-3
-4
-3
0
-2
-2
-3
-1
-4
-5
-3
1
-1
-4
-3
1
-2
-3
-6
-3
-4
-7
-7
-5
-9
-9
-12
-11
-10
-13
-15
-15
-13
-17
-18
-16
-18
-21
-22
-23
-20
-24
-26
-26
-22
-24
-25
-28
-26
-24
-27
-28
-27
-26
-30
-30
-30
-29
-30
-32
-31
-28
-31
-35
-32
-28
-30
-34
-34
-32
-30
-31
-33
-30
-30
-32
-33
-27
-24
-18
13
97
178
158
98
77
67
53
43
31
7
-33
-86
-153
-219
-295
-368
-431
-476
-523
-555
-563
-603
-626
-639
-645
-650
-649
-653
-655
-655
-653
-651
-647
-636
-614
-583
-549
-508
-461
-402
-340
-277
-213
-153
-97
-80
-2
38
76
108
131
149
162
170
182
192
200
208
217
227
234
237
246
256
262
269
275
286
296
302
303
321
330
335
343
351
360
366
372
378
387
389
394
397
401
401
396
395
393
386
376
366
360
345
332
327
302
283
262
241
225
209
188
170
156
142
126
110
98
92
77
68
60
56
45
38
34
32
28
20
19
19
17
12
10
10
11
6
4
5
7
5
4
5
6
5
2
4
8
7
6
5
9
10
7
6
8
9
7
4
7
8
4
3
2
6
2
2
1
3
-3
-4
-5
-3
-4
-7
-8
-5
-7
-10
-11
-11
-10
-14
-17
-15
-14
-18
-20
-18
-18
-20
-23
-23
-18
-21
-25
-25
-22
-24
-25
-27
-25
-23
-27
-27
-26
-24
-26
-27
-27
-25
-27
-30
-29
-27
-28
-32
-31
-27
-29
-30
-32
-27
-31
-31
-32
-29
-26
-27
-26
-14
27
121
164
114
73
58
44
35
20
-10
-62
-130
-203
-280
-362
-429
-477
-525
-557
-582
-605
-626
-637
-641
-646
-648
-653
-655
-654
-652
-649
-641
-624
-592
-555
-507
-446
-377
-304
-237
-168
-100
-43
4
48
90
124
141
146
166
175
181
190
203
213
220
225
235
244
249
255
263
272
278
285
292
303
311
317
327
338
343
351
353
367
377
380
386
394
398
397
397
397
399
391
384
374
367
351
336
319
305
284
263
243
225
205
182
175
151
132
116
103
93
81
68
58
54
48
38
31
30
28
23
16
13
16
14
11
11
13
14
9
8
9
10
8
6
10
9
7
7
6
12
10
4
9
10
9
6
6
7
6
3
0
3
3
-2
-3
-1
-2
-6
-8
-6
-7
-12
-14
-14
-13
-16
-18
-18
-14
-19
-24
-23
-21
-21
-24
-27
-25
-26
-27
-28
-26
-27
-30
-31
-29
-28
-31
-32
-30
-28
-33
-34
-31
-31
-32
-33
-35
-34
-33
-36
-35
-33
-32
-36
-37
-34
-33
-36
-35
-36
-34
-36
-37
-36
-32
-33
-30
-20
26
123
155
91
56
39
16
-8
-42
-92
-153
-173
-277
-327
-379
-430
-490
-543
-581
-607
-628
-640
-649
-655
-658
-658
-659
-661
-656
-645
-632
-609
-571
-516
-450
-376
-353
-217
-150
-88
-29
24
74
108
128
149
162
171
181
195
207
215
223
232
244
252
258
268
276
285
291
294
305
314
318
322
331
337
343
349
358
367
373
376
380
387
382
377
374
369
362
349
337
325
309
290
284
255
235
216
196
177
160
139
122
109
96
79
66
57
50
41
30
28
25
20
14
11
12
10
7
5
8
10
8
5
8
7
6
5
7
7
8
4
6
8
7
6
6
6
6
3
3
5
4
2
0
0
1
-2
-5
-6
-5
-7
-12
-11
-10
-13
-16
-14
-12
-16
-19
-20
-18
-20
-23
-22
-22
-23
-26
-29
-24
-24
-27
-28
-28
-27
-30
-30
-29
-29
-30
-35
-34
-30
-31
-34
-36
-32
-32
-34
-35
-33
-37
-36
-37
-36
-36
-38
-38
-37
-35
-36
-37
-35
-34
-36
-37
-33
-29
-17
40
147
157
85
51
37
18
-10
-54
-68
-166
-235
-297
-349
-395
-453
-517
-562
-588
-614
-635
-646
-650
-652
-655
-662
-658
-653
-645
-630
-600
-555
-503
-439
-417
-292
-223
-161
-101
-44
6
50
88
116
135
146
155
166
176
184
189
200
208
214
219
232
240
247
251
253
269
279
286
296
308
320
328
337
348
353
356
358
366
369
371
369
369
370
361
354
346
340
330
317
312
292
276
256
236
222
203
181
165
149
133
114
100
87
76
63
53
45
39
31
25
21
17
15
12
9
9
9
7
5
8
7
7
5
6
8
9
5
9
11
9
6
8
12
10
8
10
11
10
6
6
9
9
6
3
4
4
-2
-3
-2
-1
-3
-8
-5
-6
-7
-12
-10
-11
-11
-16
-15
-14
-15
-17
-20
-19
-18
-22
-22
-19
-21
-23
-25
-23
-22
-24
-27
-26
-22
-25
-29
-28
-26
-27
-31
-30
-26
-27
-29
-30
-28
-27
-29
-30
-29
-27
-30
-30
-30
-26
-27
-27
-19
6
91
186
142
77
59
48
35
19
-17
-81
-103
-241
-330
-410
-470
-519
-552
-584
-613
-632
-641
-648
-653
-656
-656
-657
-659
-651
-644
-623
-595
-551
-496
-426
-352
-327
-196
-123
-61
-5
45
88
119
141
157
169
179
188
199
209
216
221
230
240
247
252
262
272
281
287
290
307
318
322
330
343
354
359
371
380
391
395
401
406
411
410
405
402
402
389
378
367
354
338
319
312
285
268
245
229
214
194
173
154
139
126
110
95
84
75
62
52
47
41
35
26
21
20
17
11
10
9
7
5
4
6
6
5
4
5
7
5
5
6
6
6
5
3
9
8
6
5
6
7
4
2
4
5
1
-2
-1
-1
-4
-5
-6
-6
-9
-11
-12
-12
-12
-17
-16
-16
-16
-18
-19
-19
-20
-25
-27
-24
-23
-26
-27
-26
-27
-29
-31
-29
-28
-30
-34
-32
-31
-30
-31
-32
-30
-29
-33
-31
-30
-32
-34
-35
-32
-31
-34
-33
-34
-32
-35
-37
-35
-36
-35
-35
-31
-24
1
74
160
133
70
44
30
12
-17
-63
-80
-184
-254
-317
-374
-419
-469
-527
-570
-595
-615
-635
-650
-655
-655
-659
-664
-663
-656
-658
-654
-640
-615
-581
-540
-525
-407
-331
-253
-181
-113
-53
-3
46
91
120
135
148
161
173
182
187
198
206
213
218
225
232
241
244
246
261
271
272
282
295
302
309
314
327
336
339
349
358
368
374
381
387
394
398
393
392
389
380
369
365
351
336
316
297
283
263
240
220
205
189
171
150
135
124
106
92
80
70
61
49
42
35
27
21
17
12
10
3
1
4
0
-3
-4
-3
-2
-4
-5
-4
-4
-4
-5
-4
-1
-3
-5
-3
-2
-1
-3
-5
-1
-2
-4
-3
-4
-3
-8
-8
-7
-7
-11
-14
-12
-9
-13
-17
-15
-13
-16
-19
-21
-20
-24
-24
-26
-26
-25
-27
-28
-28
-27
-29
-31
-30
-28
-30
-34
-34
-32
-32
-35
-33
-31
-32
-34
-35
-33
-34
-39
-38
-36
-36
-37
-37
-33
-36
-38
-41
-39
-33
-35
-39
-37
-35
-36
-38
-37
-35
-33
-32
-21
25
124
161
153
67
53
36
24
3
-35
-93
-166
-236
-315
-391
-455
-502
-538
-570
-604
-629
-639
-647
-655
-658
-661
-659
-663
-664
-654
-643
-624
-593
-549
-502
-441
-369
-296
-232
-168
-108
-52
-2
39
75
106
127
139
146
158
168
176
182
186
199
205
210
216
227
234
240
248
260
269
274
280
292
302
310
318
329
342
346
351
362
371
380
383
386
394
395
391
387
383
373
360
347
335
318
299
279
260
242
220
201
189
177
157
140
127
112
96
83
79
63
54
42
35
30
25
18
13
12
8
4
3
3
3
0
-3
-3
-2
-1
-4
-3
-1
0
-3
-4
2
1
-1
0
1
2
0
-1
-1
1
-1
-4
-2
0
-5
-7
-6
-4
-7
-9
-10
-8
-10
-14
-15
-12
-14
-17
-18
-16
-17
-24
-25
-23
-23
-26
-27
-27
-25
-27
-31
-31
-28
-30
-32
-34
-32
-32
-33
-35
-32
-30
-34
-35
-34
-32
-37
-37
-35
-35
-35
-38
-36
-35
-37
-39
-39
-35
-36
-38
-38
-35
-34
-37
-38
-33
-31
-22
18
115
170
112
60
49
41
26
10
-11
-51
-111
-183
-257
-334
-407
-467
-513
-548
-575
-606
-616
-643
-651
-657
-661
-661
-663
-665
-665
-658
-653
-642
-617
-579
-537
-482
-413
-334
-264
-194
-126
-69
-16
29
72
83
133
147
158
170
181
192
200
206
215
224
230
235
245
252
259
265
276
284
293
298
310
323
330
337
340
359
366
373
379
387
392
393
396
398
398
394
386
384
373
360
347
332
317
299
278
261
243
224
201
194
166
148
130
113
99
86
72
58
50
39
32
23
20
17
11
5
6
4
1
-3
-3
-2
-2
-6
-7
-2
0
1
0
4
6
4
2
4
7
4
4
3
3
-2
-6
-7
-8
-13
-17
-19
-19
-21
-26
-26
-23
-21
-21
-22
-22
-23
-27
-29
-26
-28
-29
-33
-32
-34
-35
-36
-36
-35
-37
-40
-39
-39
-40
-43
-43
-42
-44
-43
-43
-41
-41
-45
-45
-43
-44
-45
-46
-45
-44
-46
-46
-44
-42
-43
-45
-43
-42
-43
-45
-46
-42
-44
-46
-47
-45
-43
-41
-46
-43
-43
-43
-42
-40
-33
-25
6
100
171
129
68
48
38
27
11
6
-41
-87
-152
-223
-291
-362
-431
-481
-518
-544
-564
-580
-601
-622
-637
-646
-650
-655
-661
-666
-665
-659
-659
-654
-650
-622
-598
-570
-531
-484
-429
-367
-304
-242
-184
-126
-71
-20
21
57
87
117
137
150
158
174
188
198
206
210
229
239
247
255
268
279
290
297
310
324
333
342
355
365
374
378
391
398
407
410
415
419
423
420
420
420
416
409
402
393
383
368
354
343
325
307
287
273
252
232
213
197
182
165
149
135
120
107
91
85
71
61
51
42
37
31
21
15
14
9
2
-3
-5
-5
-9
-13
-14
-12
-15
-17
-18
-17
-18
-21
-22
-18
-20
-22
-23
-20
-21
-22
-21
-19
-19
-21
-22
-21
-21
-21
-24
-20
-19
-20
-22
-20
-19
-22
-25
-24
-24
-24
-28
-29
-25
-26
-30
-32
-29
-29
-33
-37
-34
-33
-36
-39
-38
-36
-36
-38
-36
-33
-34
-33
-32
-28
-26
-29
-32
-31
-32
-34
-35
-36
-37
-43
-48
-45
-44
-47
-52
-54
-54
-55
-58
-54
-50
-50
-52
-54
-52
-51
-52
-52
-48
-48
-50
-44
-34
9
108
160
103
56
43
31
24
13
-13
-51
-100
-161
-226
-291
-312
-400
-437
-472
-502
-532
-569
-599
-617
-627
-639
-651
-656
-658
-658
-659
-656
-642
-623
-592
-556
-511
-461
-402
-342
-323
-207
-139
-81
-25
19
58
90
118
139
150
161
172
184
195
203
209
224
234
244
253
266
279
289
296
298
320
333
338
348
358
369
377
383
390
395
399
396
398
397
394
387
382
375
361
345
331
315
299
278
272
244
224
203
185
169
151
136
119
107
91
79
66
57
48
39
28
26
19
14
7
4
2
-1
-6
-7
-9
-11
-14
-16
-15
-15
-18
-21
-20
-17
-22
-25
-23
-20
-21
-24
-21
-19
-20
-22
-20
-17
-17
-20
-19
-18
-17
-19
-20
-16
-17
-20
-21
-20
-19
-21
-24
-22
-20
-25
-27
-25
-25
-28
-30
-29
-28
-30
-34
-36
-31
-32
-36
-37
-35
-35
-39
-38
-38
-37
-38
-42
-42
-41
-42
-44
-39
-38
-40
-42
-41
-37
-37
-37
-36
-29
-28
-34
-36
-34
-36
-39
-41
-40
-44
-48
-51
-48
-43
-22
56
162
152
80
52
44
34
21
-5
-14
-98
-173
-249
-325
-392
-444
-484
-511
-541
-574
-603
-619
-625
-635
-645
-654
-655
-656
-654
-646
-622
-588
-548
-503
-486
-362
-287
-216
-142
-76
-24
24
65
103
126
141
154
170
179
190
198
212
223
231
241
254
268
277
287
290
314
327
333
341
355
364
371
378
387
395
396
398
401
402
395
387
384
374
361
342
331
314
296
275
268
240
219
199
179
161
145
128
110
100
86
72
62
54
46
37
27
26
20
13
7
5
2
-3
-6
-7
-7
-8
-14
-13
-13
-13
-13
-15
-14
-13
-13
-14
-13
-12
-13
-14
-12
-10
-11
-14
-9
-8
-8
-11
-11
-9
-9
-12
-13
-10
-10
-16
-16
-12
-13
-16
-20
-19
-20
-21
-23
-24
-22
-25
-27
-28
-25
-29
-30
-31
-30
-29
-36
-35
-31
-34
-37
-36
-35
-35
-37
-40
-36
-38
-39
-41
-40
-37
-39
-39
-39
-39
-40
-41
-42
-39
-40
-43
-42
-38
-39
-40
-40
-33
-17
43
149
164
86
49
39
27
12
-15
-61
-125
-202
-285
-369
-396
-495
-540
-571
-600
-623
-638
-647
-654
-655
-658
-662
-664
-659
-656
-653
-643
-619
-585
-544
-490
-413
-338
-265
-198
-176
-66
-14
32
79
112
132
141
153
168
177
186
192
204
214
216
221
232
241
246
252
262
271
278
286
289
310
320
326
336
347
354
360
367
379
384
387
390
395
396
394
388
383
375
362
346
335
319
297
277
270
243
222
200
180
166
146
126
109
96
84
69
56
51
42
32
25
22
20
13
9
9
6
4
2
1
3
2
-2
0
2
2
-1
-2
-1
1
-2
-2
0
1
1
-2
-1
0
-1
-3
-1
-1
-4
-7
-8
-5
-6
-10
-9
-8
-10
-15
-17
-16
-16
-21
-20
-20
-23
-24
-27
-25
-25
-27
-29
-31
-30
-31
-34
-36
-32
-35
-37
-38
-35
-37
-38
-38
-38
-37
-40
-39
-38
-37
-39
-40
-39
-38
-39
-41
-40
-39
-38
-43
-42
-40
-39
-42
-40
-37
-38
-38
-33
-23
32
136
168
100
54
43
28
15
-7
-51
-108
-177
-250
-328
-406
-428
-512
-549
-575
-606
-627
-638
-650
-653
-655
-654
-658
-659
-656
-650
-643
-627
-593
-550
-501
-440
-363
-285
-214
-144
-122
-18
31
71
110
137
153
162
177
186
198
205
210
219
223
227
231
239
244
249
254
263
269
277
282
285
305
315
319
328
339
344
351
357
365
367
369
369
374
373
368
363
364
359
347
336
328
314
298
279
273
246
226
205
187
174
154
136
122
108
94
80
67
60
51
40
31
28
23
16
12
11
11
7
2
2
3
2
-2
1
2
0
-3
0
2
1
-1
1
2
2
1
0
2
4
2
0
-1
2
-1
-4
-5
-1
-2
-8
-6
-4
-6
-10
-11
-11
-10
-13
-17
-15
-15
-18
-22
-20
-20
-22
-26
-25
-25
-25
-29
-28
-25
-28
-29
-29
-28
-29
-32
-32
-31
-30
-36
-35
-32
-29
-33
-36
-33
-32
-35
-36
-36
-34
-34
-36
-35
-33
-34
-37
-36
-33
-34
-35
-33
-32
-31
-30
-29
-19
10
95
187
155
87
63
53
47
37
15
-16
-28
-124
-195
-274
-351
-411
-467
-508
-536
-565
-597
-620
-630
-635
-641
-645
-649
-648
-648
-646
-644
-635
-617
-588
-552
-540
-448
-380
-308
-242
-176
-110
-58
-8
37
78
109
134
153
165
172
182
192
200
207
214
221
229
235
241
244
259
265
269
282
290
297
304
312
325
332
340
346
359
369
374
380
391
396
398
401
405
408
407
402
400
392
383
368
354
341
320
298
279
263
240
219
199
180
162
147
133
120
106
90
77
70
61
51
41
38
32
26
20
16
16
13
9
8
9
7
5
3
4
4
1
2
3
4
4
1
5
5
5
3
3
7
7
4
4
7
8
3
4
5
5
2
-2
0
-2
-3
-6
-3
-3
-6
-8
-9
-9
-9
-13
-14
-15
-16
-20
-20
-16
-19
-23
-23
-21
-21
-24
-23
-25
-25
-27
-28
-25
-23
-26
-28
-26
-25
-28
-30
-30
-28
-28
-31
-29
-26
-29
-32
-32
-30
-28
-31
-32
-29
-29
-32
-33
-30
-28
-28
-30
-29
-24
-16
27
48
187
127
73
58
47
35
18
-5
-40
-96
-166
-237
-311
-385
-443
-493
-528
-558
-587
-614
-629
-639
-646
-651
-653
-653
-653
-656
-653
-648
-640
-626
-601
-566
-527
-478
-413
-341
-270
-204
-136
-73
-24
19
63
105
132
148
160
164
185
193
200
210
220
226
230
239
250
253
259
266
277
284
289
297
307
315
322
328
340
347
353
360
363
377
383
387
393
399
400
401
402
403
400
395
386
379
369
356
339
324
308
288
267
251
232
212
191
183
158
141
122
109
97
85
72
60
54
47
38
32
31
29
23
19
21
22
19
18
19
18
16
17
16
17
14
10
7
6
2
-3
-4
-3
-5
-7
-9
-5
0
-2
-6
-5
-4
-6
-7
-5
-6
-7
-10
-10
-8
-10
-13
-15
-12
-17
-20
-22
-20
-22
-26
-27
-24
-25
-28
-30
-29
-28
-30
-34
-33
-32
-34
-34
-35
-31
-33
-37
-35
-34
-34
-36
-37
-34
-35
-36
-37
-33
-36
-35
-35
-36
-35
-37
-37
-35
-35
-37
-38
-38
-34
-34
-36
-37
-34
-34
-35
-33
-29
-23
-1
88
186
162
88
57
48
34
19
-7
-40
-93
-164
-243
-267
-391
-455
-505
-537
-556
-574
-602
-625
-633
-640
-650
-654
-656
-654
-657
-657
-650
-639
-625
-601
-566
-524
-478
-421
-401
-284
-224
-162
-100
-45
-2
36
75
111
131
142
154
168
177
184
194
206
217
222
230
239
253
259
266
269
290
299
308
319
331
340
349
357
370
376
382
390
399
400
403
404
408
407
403
395
389
383
367
354
350
329
310
291
274
259
240
220
204
191
173
157
138
126
111
98
85
78
69
57
49
44
36
31
22
19
18
14
9
6
3
-1
-3
-5
-4
-7
-8
-10
-8
-7
-11
-13
-11
-9
-10
-12
-11
-7
-10
-14
-16
-10
-12
-14
-13
-10
-11
-12
-13
-10
-12
-14
-14
-13
-14
-17
-18
-15
-14
-14
-15
-10
-8
-9
-13
-12
-11
-14
-16
-17
-17
-22
-27
-29
-28
-30
-35
-39
-35
-39
-45
-49
-45
-44
-43
-42
-40
-41
-41
-45
-46
-43
-44
-46
-45
-43
-43
-46
-46
-44
-46
-44
-46
-43
-46
-44
-47
-41
-44
-46
-45
-42
-39
-38
-33
-30
53
156
168
99
63
49
37
34
29
10
-21
-62
-115
-173
-238
-303
-357
-405
-444
-480
-504
-532
-568
-597
-605
-623
-636
-646
-650
-652
-654
-655
-653
-645
-632
-613
-584
-545
-508
-462
-401
-332
-272
-212
-154
-99
-49
-11
26
37
92
118
132
145
159
168
174
186
196
204
211
220
231
240
248
259
270
277
287
295
310
320
329
338
341
360
365
375
384
390
394
396
399
403
403
398
396
393
384
373
363
355
341
324
307
290
273
254
235
228
203
184
169
153
139
125
110
95
88
76
61
52
48
40
29
24
19
16
9
6
4
3
0
-5
-6
-8
-11
-14
-14
-11
-15
-17
-16
-14
-16
-18
-20
-16
-16
-17
-18
-16
-14
-15
-15
-14
-12
-14
-14
-15
-13
-15
-16
-16
-14
-17
-20
-18
-15
-18
-21
-22
-21
-25
-25
-27
-26
-25
-29
-31
-32
-30
-30
-33
-34
-33
-36
-39
-40
-37
-39
-42
-43
-38
-42
-44
-43
-41
-43
-44
-48
-42
-44
-45
-45
-41
-38
-40
-37
-36
-33
-33
-36
-36
-30
-34
-40
-40
-40
-41
-43
-47
-41
-20
60
158
126
53
37
28
17
3
-22
-69
-85
-198
-273
-352
-423
-471
-512
-542
-572
-599
-622
-636
-641
-646
-655
-662
-667
-664
-663
-662
-653
-630
-601
-572
-531
-517
-413
-346
-283
-215
-149
-91
-41
5
50
84
109
128
146
157
166
179
190
203
210
220
232
243
251
260
264
283
289
300
311
324
334
341
352
365
371
377
384
392
396
398
400
401
401
393
385
381
371
355
339
334
309
290
271
255
240
220
199
180
166
147
129
113
102
88
72
59
55
44
34
26
20
17
8
5
3
-1
-6
-10
-12
-10
-14
-19
-18
-15
-16
-20
-22
-18
-20
-22
-24
-19
-20
-22
-22
-17
-17
-20
-20
-22
-14
-18
-18
-18
-17
-18
-21
-19
-16
-18
-21
-23
-20
-21
-26
-28
-28
-28
-30
-30
-29
-29
-34
-35
-35
-35
-39
-41
-38
-36
-37
-43
-41
-39
-41
-44
-46
-43
-42
-47
-48
-45
-46
-46
-48
-46
-47
-47
-48
-46
-43
-47
-46
-45
-40
-40
-38
-36
-33
-32
-38
-38
-31
-6
86
178
118
48
27
12
-3
-27
-66
-129
-151
-284
-370
-443
-497
-535
-568
-601
-629
-644
-653
-661
-665
-664
-667
-668
-665
-656
-646
-623
-587
-544
-495
-440
-368
-346
-227
-164
-105
-47
4
43
78
106
128
142
149
162
174
184
191
200
211
221
229
237
248
259
267
276
280
296
306
312
324
333
341
346
357
364
369
372
376
380
380
376
371
369
361
349
337
325
309
290
271
264
236
216
197
181
164
144
129
113
100
85
71
61
52
43
31
22
19
12
5
1
-1
-4
-7
-12
-13
-13
-15
-20
-21
-18
-22
-24
-23
-20
-20
-22
-20
-18
-18
-21
-21
-17
-16
-20
-21
-18
-17
-19
-20
-21
-17
-20
-25
-23
-21
-25
-26
-28
-27
-27
-31
-30
-30
-32
-34
-37
-36
-36
-38
-41
-39
-40
-40
-44
-44
-40
-44
-46
-45
-43
-47
-49
-48
-45
-46
-51
-49
-47
-48
-52
-52
-49
-48
-49
-53
-48
-48
-52
-52
-52
-48
-52
-54
-50
-49
-50
-50
-46
-33
11
114
176
119
60
42
32
26
13
-15
-60
-117
-189
-266
-343
-368
-466
-516
-552
-579
-607
-637
-652
-657
-658
-664
-670
-670
-666
-667
-665
-661
-646
-623
-591
-552
-499
-432
-362
-292
-270
-158
-99
-51
-4
39
75
98
119
137
144
150
161
170
175
182
188
196
202
206
212
219
229
233
240
243
256
263
268
281
290
300
303
315
325
331
336
344
351
354
356
359
361
359
353
346
340
330
316
298
292
265
243
224
205
186
167
143
126
114
96
78
66
56
44
33
25
21
18
8
5
3
3
-2
-5
-7
-2
-7
-7
-6
-5
-5
-7
-6
-4
-4
-6
-5
-3
-2
-7
-8
-6
-5
-9
-11
-11
-10
-13
-17
-17
-16
-18
-21
-23
-21
-22
-26
-27
-26
-29
-33
-30
-32
-31
-37
-38
-38
-36
-39
-41
-40
-40
-41
-45
-44
-42
-42
-47
-44
-44
-43
-46
-47
-46
-47
-48
-50
-47
-47
-48
-49
-48
-45
-49
-49
-46
-46
-48
-52
-49
-47
-47
-50
-48
-47
-45
-46
-42
-35
-19
48
149
140
72
41
26
14
-7
-43
-89
-139
-204
-274
-332
-350
-424
-479
-530
-565
-593
-617
-642
-649
-651
-659
-663
-662
-659
-659
-658
-652
-637
-613
-583
-540
-486
-425
-362
-291
-268
-156
-97
-44
6
54
93
114
134
150
160
169
180
191
198
203
212
218
222
225
229
235
241
243
246
249
262
270
273
284
295
305
310
318
325
332
337
344
352
356
356
359
359
361
357
353
348
339
328
315
311
289
268
249
231
215
195
174
158
143
124
106
92
81
67
52
43
36
29
21
15
13
10
5
1
0
2
-1
-5
-3
-3
-5
-7
-5
-2
-3
-6
-6
-4
-4
-7
-7
-4
-6
-9
-9
-6
-6
-9
-12
-11
-10
-14
-17
-15
-14
-15
-18
-20
-20
-21
-23
-25
-26
-24
-29
-31
-30
-31
-33
-36
-34
-31
-35
-38
-39
-35
-37
-40
-38
-37
-40
-43
-42
-40
-40
-43
-41
-41
-41
-42
-44
-42
-39
-45
-43
-40
-41
-43
-46
-47
-43
-46
-48
-45
-42
-45
-47
-45
-43
-43
-45
-46
-44
-44
-47
-45
-44
-41
-38
-24
40
128
133
72
55
32
11
-12
-41
-81
-131
-189
-248
-296
-340
-384
-435
-493
-542
-573
-596
-618
-634
-643
-650
-652
-651
-655
-655
-654
-645
-640
-623
-592
-556
-511
-452
-390
-323
-254
-194
-136
-80
-31
13
57
90
112
125
136
146
157
163
170
174
186
192
195
202
209
215
217
227
234
239
242
247
258
270
275
284
293
302
308
318
327
333
335
340
343
352
354
350
350
350
342
332
323
314
299
286
272
261
247
233
220
207
192
170
152
141
127
109
95
92
72
59
48
40
34
23
15
14
11
7
0
0
0
-2
-7
-7
-6
-6
-9
-8
-5
-5
-8
-7
-6
-4
-6
-9
-5
-5
-6
-8
-6
-5
-4
-7
-9
-7
-8
-11
-11
-12
-11
-14
-16
-17
-16
-21
-22
-22
-23
-26
-26
-26
-25
-28
-32
-29
-30
-30
-34
-34
-30
-34
-35
-35
-34
-34
-35
-38
-35
-36
-40
-38
-39
-37
-39
-40
-40
-37
-39
-41
-41
-39
-38
-41
-41
-38
-37
-42
-42
-39
-39
-40
-43
-38
-38
-41
-42
-43
-38
-42
-41
-39
-36
-30
-12
67
156
130
70
52
47
37
23
8
-20
-65
-126
-194
-265
-339
-407
-464
-479
-538
-567
-596
-621
-632
-643
-650
-653
-652
-654
-657
-655
-651
-648
-642
-626
-596
-564
-523
-469
-404
-335
-269
-205
-185
-78
-30
11
52
89
112
126
140
152
160
165
174
183
191
194
202
210
214
220
225
233
242
248
256
260
274
281
289
296
307
312
317
327
336
341
346
353
359
364
364
368
368
368
363
359
357
348
338
327
323
298
279
257
239
220
198
174
153
136
115
96
82
72
62
51
44
39
33
22
17
15
10
5
2
0
2
-1
-3
-3
-1
-4
-6
-5
-4
-5
-8
-6
-5
-3
-6
-6
-3
-2
-6
-6
-3
-4
-9
-10
-10
-7
-12
-15
-14
-14
-17
-21
-19
-19
-20
-24
-22
-23
-24
-26
-26
-27
-27
-31
-34
-30
-30
-34
-36
-35
-32
-34
-38
-34
-32
-37
-39
-38
-36
-36
-41
-38
-38
-38
-40
-40
-37
-37
-40
-41
-40
-40
-41
-41
-40
-40
-40
-43
-40
-40
-40
-44
-41
-39
-42
-44
-40
-39
-39
-40
-37
-25
18
123
167
103
58
42
29
25
8
-19
-62
-117
-183
-255
-330
-398
-453
-500
-541
-569
-595
-622
-638
-643
-646
-651
-654
-656
-651
-650
-650
-647
-644
-617
-592
-557
-507
-441
-374
-306
-231
-162
-101
-50
-3
44
84
109
131
145
158
165
174
185
192
199
205
209
222
230
236
245
254
258
264
275
285
292
298
309
318
325
331
339
348
356
360
365
374
378
378
381
383
384
380
376
370
364
350
337
322
307
289
268
251
232
212
193
174
157
140
122
106
93
80
66
55
52
42
34
24
22
17
10
5
5
6
2
-2
-3
-2
-4
-5
-6
-5
-7
-10
-8
-8
-8
-10
-8
-6
-7
-7
-11
-7
-8
-9
-12
-11
-10
-10
-12
-10
-7
-5
-8
-6
-5
-7
-8
-12
-8
-9
-12
-16
-17
-20
-25
-29
-29
-32
-35
-40
-40
-42
-42
-44
-42
-38
-40
-43
-43
-40
-41
-45
-47
-44
-45
-48
-49
-48
-46
-47
-48
-46
-46
-48
-50
-47
-45
-48
-49
-49
-46
-47
-50
-51
-47
-47
-49
-47
-47
-46
-49
-47
-47
-46
-45
-45
-39
-22
25
122
156
96
54
42
31
23
9
-16
-54
-108
-176
-248
-321
-391
-447
-492
-524
-532
-558
-584
-609
-622
-627
-637
-644
-646
-645
-645
-645
-643
-633
-620
-599
-569
-530
-490
-451
-397
-333
-271
-215
-154
-134
-45
-5
31
68
99
120
135
150
161
171
179
189
200
210
216
227
236
248
255
264
275
287
294
305
310
325
334
340
350
357
363
372
378
385
387
386
390
390
388
378
373
367
356
339
327
316
298
281
262
256
226
207
188
172
155
139
123
109
100
85
71
62
53
46
35
29
26
19
13
8
9
5
-2
-5
-5
-4
-8
-11
-11
-12
-13
-17
-14
-13
-14
-17
-16
-13
-15
-14
-14
-11
-14
-15
-14
-12
-13
-16
-15
-16
-11
-13
-15
-13
-13
-13
-18
-16
-15
-18
-19
-18
-18
-19
-22
-23
-23
-24
-28
-28
-28
-27
-31
-32
-32
-31
-33
-31
-30
-31
-32
-33
-30
-27
-28
-26
-24
-22
-24
-26
-25
-22
-26
-29
-32
-31
-34
-37
-40
-40
-43
-45
-50
-47
-43
-41
-41
-39
-39
-37
-31
-1
86
176
131
65
53
44
34
22
2
-37
-90
-156
-175
-276
-337
-376
-404
-431
-464
-503
-535
-558
-573
-589
-599
-610
-616
-624
-625
-626
-622
-613
-590
-559
-523
-482
-423
-401
-282
-216
-156
-95
-40
4
39
79
112
130
141
153
167
175
185
198
207
215
223
234
246
257
264
274
278
299
309
316
329
340
347
355
367
375
382
384
392
396
398
395
394
391
386
375
365
353
338
322
307
301
274
252
232
214
198
176
158
142
128
113
96
84
77
64
52
45
42
35
24
21
19
13
10
4
5
2
-1
-1
-3
-6
-6
-9
-6
-5
-10
-10
-9
-7
-7
-9
-10
-8
-6
-7
-6
-4
-4
-5
-7
-7
-4
-7
-9
-6
-5
-7
-10
-9
-10
-9
-12
-12
-11
-12
-17
-18
-18
-16
-20
-21
-22
-22
-25
-25
-26
-24
-26
-29
-26
-26
-29
-31
-29
-28
-30
-32
-30
-30
-30
-34
-35
-31
-33
-34
-34
-29
-32
-35
-35
-34
-31
-34
-34
-32
-34
-32
-32
-28
-22
2
78
164
136
75
55
46
40
24
-6
-51
-113
-191
-274
-352
-376
-474
-516
-546
-574
-600
-617
-625
-630
-634
-636
-639
-636
-632
-630
-623
-606
-572
-531
-489
-429
-360
-295
-237
-176
-156
-63
-19
23
66
97
116
130
143
155
164
171
180
191
198
203
213
222
231
237
248
260
269
277
286
289
307
314
323
334
342
349
356
363
370
374
376
382
384
384
378
377
371
363
350
336
324
308
288
269
263
233
210
189
172
152
135
119
103
91
76
65
57
49
40
29
25
22
19
11
11
9
7
3
2
1
0
0
-2
0
0
-2
-3
-3
-2
-1
-3
-1
2
0
-2
-3
0
-2
-6
-5
-1
-3
-4
-7
-5
-5
-8
-10
-8
-10
-11
-15
-14
-13
-16
-19
-17
-18
-20
-22
-23
-22
-22
-23
-25
-23
-24
-27
-28
-27
-25
-28
-30
-27
-27
-29
-29
-30
-29
-29
-30
-30
-28
-29
-32
-33
-29
-28
-29
-31
-29
-28
-31
-32
-32
-30
-30
-31
-30
-28
-26
-25
-21
-7
51
161
192
121
71
57
46
38
24
-2
-41
-91
-159
-232
-312
-336
-438
-484
-516
-536
-564
-589
-604
-610
-614
-618
-624
-624
-621
-620
-621
-617
-605
-589
-563
-524
-473
-412
-347
-280
-260
-159
-104
-54
-7
35
71
103
125
141
150
159
168
177
182
187
196
204
209
215
220
231
236
241
251
253
273
276
286
297
305
312
321
331
339
347
352
360
366
371
369
370
374
369
363
358
351
338
320
306
301
272
250
233
215
196
174
153
138
122
107
90
82
71
59
49
42
39
31
24
22
20
17
16
13
14
14
11
10
9
12
9
4
7
9
8
6
7
10
7
5
6
4
5
3
3
7
5
1
0
1
2
-2
-5
-2
-5
-7
-12
-8
-9
-12
-13
-14
-13
-14
-17
-16
-17
-18
-21
-21
-20
-20
-22
-24
-24
-23
-26
-28
-25
-27
-28
-30
-29
-27
-29
-32
-31
-28
-31
-32
-29
-28
-29
-32
-31
-29
-30
-35
-32
-31
-30
-33
-35
-31
-30
-33
-34
-31
-30
-28
-30
-22
-5
50
152
177
108
67
53
45
40
27
6
-27
-39
-132
-198
-268
-334
-390
-440
-479
-501
-528
-560
-585
-596
-601
-608
-617
-621
-618
-620
-623
-619
-615
-607
-596
-569
-559
-497
-450
-388
-323
-259
-200
-141
-85
-37
7
45
82
107
123
132
142
152
162
165
173
180
185
187
193
196
209
212
219
230
236
242
249
260
270
278
285
296
307
314
323
332
342
347
354
361
366
371
369
370
372
368
360
353
345
335
319
306
292
274
255
237
217
201
185
161
144
128
114
97
85
78
65
54
47
45
35
27
25
23
20
15
12
11
11
10
7
8
9
7
4
7
9
8
5
5
9
8
3
4
5
8
5
3
7
8
4
3
5
4
2
0
-1
0
-2
-4
-5
-2
-5
-9
-9
-7
-8
-14
-15
-14
-12
-15
-17
-15
-17
-18
-20
-19
-19
-21
-24
-22
-22
-23
-28
-27
-27
-26
-29
-30
-26
-28
-31
-32
-31
-31
-33
-35
-31
-33
-31
-36
-31
-30
-32
-34
-31
-31
-32
-35
-36
-32
-32
-35
-36
-32
-32
-33
-34
-32
-33
-33
-32
-26
-9
39
140
176
116
68
51
42
33
22
7
-14
-48
-99
-162
-225
-290
-361
-417
-463
-477
-521
-549
-581
-598
-609
-616
-622
-622
-621
-626
-625
-623
-619
-617
-610
-592
-565
-534
-496
-446
-382
-317
-261
-200
-179
-81
-34
7
51
90
118
139
157
168
179
184
196
204
212
216
223
229
232
234
241
250
253
256
262
266
280
285
293
305
319
326
332
341
346
354
358
366
371
374
374
377
379
377
371
364
361
350
337
324
320
297
277
260
245
226
206
186
170
150
133
114
104
91
76
66
55
50
43
31
29
24
19
11
7
8
8
4
1
2
-1
-1
-4
-1
0
-3
-5
-3
-1
-2
-5
-4
-2
-2
-6
-5
-2
-2
-4
-4
-3
-4
-7
-8
-7
-8
-9
-11
-11
-10
-14
-16
-16
-15
-18
-19
-20
-17
-22
-22
-23
-22
-24
-25
-27
-26
-27
-30
-32
-30
-29
-33
-35
-32
-32
-35
-36
-37
-36
-37
-38
-38
-35
-37
-40
-41
-37
-37
-42
-41
-40
-37
-40
-42
-40
-39
-40
-45
-40
-39
-41
-43
-43
-40
-40
-43
-41
-38
-35
-32
-9
71
167
143
71
56
28
7
-16
-49
-92
-147
-214
-268
-311
-354
-399
-449
-499
-537
-564
-586
-602
-615
-622
-625
-626
-628
-632
-630
-629
-617
-611
-590
-560
-520
-473
-415
-345
-274
-213
-154
-97
-47
-2
40
77
102
119
130
141
150
158
166
173
176
187
193
198
208
212
217
224
232
241
248
255
264
275
282
287
298
307
318
323
334
342
347
351
355
358
360
359
358
354
347
336
326
313
301
283
265
248
230
213
196
180
166
149
131
116
102
89
72
61
56
43
31
24
21
15
7
3
-1
-2
-5
-9
-8
-8
-9
-12
-11
-10
-10
-15
-13
-11
-10
-12
-12
-10
-7
-10
-10
-7
-9
-9
-12
-9
-9
-9
-11
-10
-9
-12
-14
-14
-14
-16
-20
-20
-18
-20
-22
-23
-24
-23
-26
-27
-25
-28
-31
-30
-30
-29
-32
-33
-33
-32
-34
-37
-35
-35
-34
-40
-38
-35
-37
-40
-39
-38
-36
-39
-41
-38
-37
-39
-41
-41
-40
-40
-44
-41
-40
-43
-44
-45
-42
-42
-44
-45
-41
-42
-43
-43
-41
-33
-23
31
141
173
98
51
41
33
19
3
-24
-65
-123
-188
-254
-326
-394
-449
-496
-524
-553
-585
-605
-609
-618
-624
-631
-628
-629
-629
-628
-621
-611
-595
-569
-531
-482
-428
-365
-294
-234
-173
-115
-64
-20
23
58
90
98
124
132
143
154
160
166
173
181
188
195
200
210
216
221
228
237
246
253
261
270
279
289
296
303
306
321
326
334
342
348
350
351
355
354
354
350
348
343
335
319
306
296
280
263
245
230
214
194
175
170
143
127
107
95
82
68
54
48
42
32
25
23
23
18
11
9
7
1
-4
-5
-2
-7
-13
-16
-14
-15
-19
-20
-18
-14
-13
-14
-13
-12
-13
-15
-11
-9
-11
-12
-13
-10
-12
-14
-16
-13
-16
-17
-20
-19
-22
-22
-24
-23
-22
-27
-28
-28
-28
-32
-33
-33
-31
-34
-36
-35
-36
-35
-39
-38
-36
-38
-40
-40
-40
-39
-40
-42
-38
-36
-40
-42
-39
-38
-39
-42
-39
-38
-38
-41
-38
-38
-39
-39
-39
-38
-39
-41
-41
-39
-38
-41
-42
-40
-39
-42
-42
-39
-38
-34
-22
21
115
162
98
50
42
30
16
2
-19
-63
-119
-188
-209
-320
-385
-435
-474
-505
-527
-549
-573
-593
-600
-608
-613
-617
-618
-621
-619
-618
-612
-606
-588
-562
-530
-498
-449
-432
-329
-271
-211
-152
-97
-52
-11
29
66
95
115
131
143
151
160
176
185
192
196
207
218
224
232
242
246
263
269
281
295
304
314
321
337
345
350
358
366
374
376
378
382
387
385
381
377
375
367
355
345
342
322
305
289
275
256
236
217
199
182
163
143
129
114
99
85
73
63
52
41
33
30
21
17
10
8
4
-2
-4
-6
-8
-9
-14
-12
-12
-13
-15
-14
-14
-14
-16
-17
-13
-17
-16
-16
-15
-13
-17
-17
-16
-15
-15
-17
-12
-11
-13
-13
-11
-10
-12
-11
-11
-10
-12
-16
-19
-18
-26
-30
-32
-32
-36
-41
-44
-45
-43
-44
-42
-40
-40
-43
-43
-42
-42
-44
-46
-42
-42
-41
-46
-45
-44
-44
-47
-47
-47
-47
-48
-47
-46
-46
-50
-48
-46
-46
-46
-48
-43
-42
-43
-44
-39
-34
-17
48
150
135
62
34
26
21
11
-8
-38
-50
-151
-227
-300
-369
-432
-477
-512
-531
-551
-577
-599
-606
-610
-619
-621
-625
-621
-622
-621
-613
-597
-572
-544
-502
-487
-410
-354
-293
-233
-178
-124
-73
-27
10
43
76
103
121
134
144
157
167
176
183
194
206
214
221
232
237
254
261
272
288
298
307
317
331
341
348
356
363
372
373
378
382
384
382
375
371
365
354
342
329
324
300
281
265
251
232
212
191
174
157
139
123
110
95
80
68
60
52
43
30
24
21
14
8
4
3
1
-6
-7
-9
-12
-14
-18
-17
-16
-17
-20
-19
-19
-20
-23
-22
-19
-20
-22
-19
-17
-20
-23
-19
-17
-17
-20
-20
-20
-19
-21
-21
-22
-22
-22
-25
-24
-24
-26
-29
-30
-27
-30
-32
-34
-30
-31
-35
-36
-37
-37
-39
-38
-38
-38
-39
-40
-37
-36
-35
-35
-33
-30
-34
-34
-32
-30
-34
-37
-40
-40
-42
-48
-49
-49
-54
-56
-57
-50
-48
-46
-49
-45
-42
-36
-8
82
161
114
51
38
32
22
6
-19
-56
-114
-179
-240
-259
-350
-389
-417
-443
-482
-519
-550
-564
-573
-589
-602
-608
-610
-612
-618
-612
-603
-586
-563
-527
-484
-431
-369
-299
-278
-176
-123
-70
-24
13
49
77
101
114
126
134
147
156
162
169
180
190
196
205
216
226
234
240
252
256
274
283
293
307
313
321
331
340
348
353
355
362
364
365
359
356
351
340
328
315
305
287
267
248
242
214
195
177
161
146
128
115
100
89
75
63
52
45
36
26
21
17
13
6
4
3
-3
-7
-7
-9
-10
-14
-16
-13
-11
-13
-17
-14
-12
-15
-14
-13
-11
-13
-16
-11
-10
-12
-14
-12
-9
-10
-13
-13
-11
-11
-13
-15
-13
-14
-16
-17
-16
-16
-18
-20
-20
-19
-23
-25
-23
-22
-24
-29
-27
-27
-28
-31
-33
-33
-32
-32
-34
-31
-33
-35
-35
-33
-33
-36
-38
-36
-34
-36
-39
-36
-34
-36
-39
-38
-37
-38
-42
-40
-40
-38
-41
-41
-38
-37
-39
-40
-36
-35
-33
-26
20
123
177
109
56
49
39
26
14
-5
-45
-98
-163
-184
-296
-367
-420
-466
-503
-531
-561
-584
-600
-610
-618
-618
-618
-620
-623
-621
-617
-615
-613
-596
-572
-540
-503
-451
-432
-317
-257
-198
-137
-88
-45
-3
34
70
91
109
122
134
140
149
157
166
173
177
186
196
203
207
215
218
232
239
246
257
266
272
282
294
299
308
315
325
331
339
342
349
355
355
354
354
355
348
338
329
326
301
284
268
254
236
214
195
178
161
139
124
110
96
81
66
57
50
41
31
24
22
16
9
8
7
4
1
0
0
-1
-2
-3
-2
0
-2
-6
-1
-1
-3
-3
-2
-1
-2
-3
-3
-1
-3
-5
-4
-3
-4
-7
-9
-7
-9
-10
-12
-11
-12
-13
-16
-14
-14
-18
-21
-21
-20
-22
-26
-24
-24
-25
-29
-29
-28
-28
-29
-30
-29
-30
-32
-33
-31
-32
-34
-35
-34
-33
-36
-38
-34
-34
-36
-39
-37
-35
-35
-37
-36
-35
-35
-37
-38
-37
-35
-37
-38
-35
-34
-35
-35
-36
-33
-39
-38
-34
-31
-27
-14
42
142
170
103
59
53
35
25
12
-4
-36
-81
-141
-205
-270
-342
-404
-446
-483
-511
-534
-562
-579
-593
-602
-608
-609
-612
-612
-613
-613
-610
-609
-603
-590
-572
-545
-506
-457
-402
-348
-289
-229
-175
-121
-72
-24
14
49
82
107
124
134
141
151
156
167
171
178
186
189
193
198
209
216
220
225
235
243
250
257
267
275
283
289
297
307
315
319
328
331
344
347
350
357
358
355
350
348
344
334
323
314
300
281
264
250
234
215
197
179
165
148
131
117
112
93
80
69
63
51
43
38
36
30
25
20
20
17
14
11
12
13
12
8
7
11
8
8
7
7
8
5
5
8
7
7
5
8
8
6
4
4
6
3
1
1
3
1
-1
-1
0
-1
-5
-6
-4
-6
-10
-12
-9
-11
-13
-17
-13
-12
-16
-19
-18
-17
-18
-21
-19
-17
-20
-23
-20
-18
-21
-23
-25
-23
-23
-25
-28
-24
-25
-28
-28
-26
-26
-27
-27
-27
-26
-28
-28
-28
-27
-28
-29
-30
-27
-29
-31
-31
-30
-28
-29
-31
-27
-28
-30
-33
-27
-26
-27
-27
-17
1
61
147
153
92
64
52
43
38
25
5
-27
-39
-127
-191
-256
-318
-372
-421
-463
-485
-510
-544
-571
-580
-590
-597
-604
-606
-605
-607
-608
-604
-601
-596
-586
-565
-557
-501
-460
-397
-328
-263
-200
-139
-87
-45
-6
31
69
97
117
129
142
150
156
160
169
176
181
184
190
193
204
206
215
223
231
235
242
255
261
269
277
288
299
307
311
322
331
335
340
348
355
356
359
360
361
359
353
345
339
327
312
297
285
269
249
230
213
195
177
156
141
127
111
96
87
78
67
58
49
47
40
33
29
28
27
21
22
22
22
19
16
16
18
18
15
15
16
16
15
16
20
17
14
14
16
16
13
11
16
15
12
9
11
12
9
6
7
7
2
1
0
3
-1
-5
-4
-2
-4
-8
-8
-9
-8
-12
-12
-12
-11
-14
-15
-14
-14
-16
-19
-17
-16
-18
-19
-20
-19
-21
-22
-21
-18
-19
-21
-21
-19
-19
-24
-23
-22
-22
-23
-24
-21
-21
-22
-24
-22
-20
-23
-24
-23
-21
-22
-24
-21
-18
-17
-18
-5
2
139
183
124
80
63
49
39
33
14
-16
-65
-122
-186
-257
-328
-385
-425
-470
-496
-518
-546
-572
-587
-593
-593
-600
-603
-607
-603
-601
-602
-597
-584
-563
-533
-498
-448
-387
-326
-262
-195
-126
-68
-21
25
67
103
130
148
154
173
182
189
201
207
212
216
224
227
234
236
243
250
253
258
268
273
279
290
304
311
318
322
334
338
348
354
360
366
371
369
369
370
370
357
350
342
332
317
302
287
270
251
231
213
196
175
157
141
137
111
95
86
78
64
55
46
44
37
32
29
28
27
22
19
19
19
16
15
17
19
18
16
16
17
17
17
16
19
16
16
13
16
16
16
14
16
15
13
10
11
13
11
8
6
8
4
3
3
4
1
-2
-4
-2
-2
-5
-9
-5
-6
-11
-12
-11
-10
-14
-15
-14
-13
-18
-18
-18
-17
-18
-19
-20
-19
-19
-21
-23
-19
-19
-23
-23
-21
-20
-21
-25
-23
-22
-24
-24
-22
-20
-22
-23
-23
-21
-23
-24
-22
-20
-16
-4
57
168
180
102
62
50
35
12
-18
-55
-104
-164
-227
-275
-317
-361
-412
-462
-498
-528
-554
-575
-581
-595
-601
-605
-604
-607
-606
-605
-595
-582
-558
-523
-477
-422
-361
-297
-228
-165
-109
-59
-12
34
74
103
123
127
148
156
166
173
179
185
190
200
204
207
212
220
228
232
238
249
257
262
269
279
290
296
302
313
317
331
335
342
349
353
354
356
357
357
349
341
335
324
311
295
284
269
252
236
222
206
186
167
151
147
122
105
94
85
71
61
51
46
38
31
26
23
19
14
12
12
12
5
5
7
7
6
1
4
5
6
4
3
6
5
5
3
7
8
4
2
6
7
3
2
3
5
1
2
1
3
0
-4
-4
-3
-5
-9
-8
-6
-8
-11
-12
-11
-10
-14
-16
-16
-13
-18
-20
-20
-19
-19
-24
-21
-20
-22
-27
-25
-25
-24
-28
-26
-25
-27
-29
-26
-26
-27
-30
-32
-27
-27
-30
-31
-29
-26
-29
-33
-31
-28
-31
-31
-33
-31
-31
-33
-34
-31
-30
-31
-32
-27
-25
-13
31
134
176
111
66
55
46
34
23
6
-23
-70
-131
-195
-214
-328
-386
-434
-473
-503
-534
-564
-582
-592
-603
-608
-610
-613
-614
-616
-612
-608
-604
-593
-571
-542
-506
-462
-402
-382
-273
-215
-153
-94
-46
-3
40
79
105
121
133
144
155
160
167
174
185
189
195
203
212
216
221
228
231
242
246
257
270
276
282
291
301
309
316
324
333
342
345
349
356
360
357
353
351
347
339
327
315
311
289
267
248
232
213
192
174
158
141
122
106
96
85
69
60
51
47
39
30
29
27
21
19
18
19
22
16
13
12
10
5
3
4
2
-5
-6
-4
-4
-5
-5
2
4
1
-2
0
0
-3
-4
-3
-1
-4
-5
-5
-4
-5
-10
-12
-11
-14
-16
-18
-16
-17
-17
-20
-22
-19
-23
-25
-24
-23
-24
-27
-27
-26
-24
-26
-28
-24
-26
-28
-28
-27
-26
-28
-29
-25
-24
-26
-29
-25
-24
-27
-28
-27
-26
-26
-29
-29
-28
-27
-30
-29
-26
-26
-30
-30
-27
-26
-26
-27
-21
-12
25
121
182
119
65
50
42
32
17
-9
-51
-66
-170
-236
-303
-366
-417
-458
-486
-505
-524
-549
-574
-587
-592
-602
-608
-613
-610
-612
-613
-606
-596
-582
-562
-529
-518
-448
-389
-315
-247
-184
-122
-61
-15
26
62
98
122
138
148
159
170
180
189
195
208
216
224
230
239
243
258
268
277
291
300
307
318
329
338
346
355
366
375
380
384
392
394
394
390
390
384
373
364
352
349
325
305
286
269
248
228
207
191
173
152
135
124
110
97
83
76
67
58
48
41
37
31
23
21
20
16
13
9
12
10
7
4
7
8
3
2
3
5
4
1
2
4
2
1
2
3
1
-2
0
0
2
-2
-2
-2
-2
-4
-5
-3
-1
-2
-1
2
3
1
-1
-1
0
-1
-7
-10
-11
-15
-21
-21
-22
-27
-30
-32
-32
-30
-31
-27
-29
-28
-30
-30
-28
-28
-28
-32
-28
-27
-29
-31
-31
-29
-29
-31
-32
-30
-30
-33
-32
-30
-29
-32
-33
-29
-28
-27
-24
-5
54
149
152
88
61
48
36
32
22
-2
-43
-96
-113
-224
-298
-364
-414
-454
-485
-507
-526
-554
-577
-590
-596
-601
-608
-608
-610
-609
-607
-604
-592
-570
-544
-510
-472
-458
-373
-316
-252
-191
-131
-76
-24
17
55
85
114
138
151
160
171
183
194
199
209
220
231
240
245
258
263
281
289
302
313
321
328
338
351
360
366
372
383
388
392
393
397
397
393
384
380
370
357
343
328
324
295
275
257
239
219
200
180
166
150
132
118
105
94
79
67
63
56
45
38
34
31
24
19
16
16
12
7
4
6
5
-1
-1
0
0
-1
-3
1
2
-2
-4
-1
0
-1
-5
-2
2
-2
-3
-2
-1
1
-1
-1
0
-2
-4
-4
-1
-3
-6
-6
-5
-4
-9
-9
-9
-8
-11
-12
-10
-10
-14
-18
-17
-15
-18
-20
-20
-17
-21
-23
-24
-21
-21
-25
-26
-26
-24
-25
-27
-26
-23
-26
-28
-25
-22
-22
-24
-19
-18
-17
-19
-18
-15
-15
-19
-18
-16
-19
-21
-25
-25
-27
-31
-33
-35
-32
-34
-32
-13
45
145
165
98
79
52
40
33
25
3
-30
-74
-127
-183
-244
-306
-359
-404
-443
-469
-494
-522
-550
-567
-574
-580
-593
-599
-599
-599
-602
-604
-598
-586
-568
-545
-509
-470
-425
-369
-304
-240
-181
-124
-74
-24
16
51
82
112
127
138
146
159
163
180
185
195
206
214
219
228
238
247
255
263
274
285
292
302
313
324
332
339
350
357
364
368
374
377
379
376
376
370
362
352
343
332
318
301
284
269
252
230
212
196
183
163
146
133
124
110
95
87
84
69
58
51
48
43
34
27
28
25
19
16
17
16
12
7
11
9
8
5
7
8
7
4
6
7
8
6
6
7
8
5
5
9
10
6
6
11
11
10
6
10
10
8
6
7
8
5
3
4
3
4
1
-1
1
1
-4
-5
-5
-4
-8
-9
-8
-7
-11
-13
-9
-11
-11
-14
-14
-13
-15
-18
-18
-16
-16
-18
-16
-15
-15
-21
-22
-18
-17
-21
-20
-18
-18
-20
-21
-19
-19
-20
-23
-20
-22
-21
-25
-23
-22
-21
-23
-23
-19
-21
-19
-15
1
60
142
149
97
70
59
44
40
28
4
-34
-81
-142
-210
-283
-351
-370
-452
-490
-513
-536
-560
-582
-594
-599
-603
-609
-611
-609
-609
-610
-610
-602
-595
-583
-559
-525
-484
-432
-370
-298
-276
-168
-110
-53
-2
41
82
114
135
149
156
165
175
182
188
193
202
208
214
219
228
236
242
247
256
261
275
279
290
299
307
314
324
334
339
347
355
363
370
372
375
378
382
378
372
369
363
351
335
324
320
293
273
254
238
220
197
180
166
150
133
118
109
96
82
73
67
60
50
43
39
35
29
25
24
24
20
17
18
19
17
13
17
16
17
16
14
17
17
16
14
17
17
18
14
16
17
15
14
14
15
15
10
13
11
12
9
7
8
7
7
5
5
5
1
-1
2
2
-3
-6
-5
-2
-8
-13
-9
-10
-9
-12
-11
-10
-11
-14
-18
-15
-16
-16
-18
-17
-17
-21
-19
-15
-16
-20
-22
-18
-18
-22
-24
-22
-21
-22
-24
-23
-21
-21
-25
-25
-23
-21
-24
-25
-23
-23
-24
-27
-20
-22
-24
-26
-23
-22
-21
-20
-12
-9
101
159
114
73
58
45
34
25
6
-32
-81
-140
-207
-282
-354
-410
-452
-490
-516
-535
-560
-581
-595
-600
-601
-607
-612
-609
-608
-607
-606
-599
-583
-560
-524
-478
-421
-350
-279
-213
-146
-84
-29
14
55
92
122
138
151
155
169
176
183
190
196
202
209
221
228
232
238
247
256
262
268
280
289
295
301
313
320
328
334
342
345
356
360
367
371
375
372
370
369
365
354
345
335
322
305
288
271
254
233
212
196
178
160
140
126
121
98
82
75
66
57
48
43
38
36
28
25
24
23
19
17
20
18
16
15
16
20
15
13
14
16
15
14
13
14
14
12
12
13
14
10
8
11
12
9
6
10
9
6
5
4
7
5
-1
0
1
-1
-4
-5
-3
-4
-8
-10
-6
-8
-10
-13
-10
-11
-15
-16
-14
-15
-16
-18
-18
-14
-17
-21
-21
-18
-18
-20
-21
-19
-19
-22
-21
-21
-20
-21
-24
-22
-21
-24
-26
-21
-22
-22
-24
-24
-21
-23
-27
-25
-23
-23
-26
-22
-19
-18
-16
5
85
167
124
73
65
55
44
34
18
-17
-70
-136
-202
-273
-345
-405
-452
-464
-513
-545
-572
-586
-596
-604
-610
-610
-611
-612
-610
-606
-600
-588
-565
-531
-490
-442
-378
-305
-241
-177
-111
-51
-33
42
82
118
140
154
161
175
187
192
198
207
217
226
232
238
250
260
264
276
289
299
307
317
330
334
348
354
362
369
375
374
378
383
384
381
379
378
374
363
351
342
329
312
293
275
259
237
216
198
192
161
142
127
113
98
83
73
66
55
46
39
36
32
27
21
22
23
19
13
15
14
14
13
13
14
14
12
12
15
16
13
14
16
17
13
15
16
16
14
12
14
14
10
8
10
11
8
3
5
6
3
0
-1
0
-1
-3
-5
-4
-6
-9
-9
-7
-9
-12
-16
-14
-12
-13
-16
-15
-13
-18
-20
-18
-18
-17
-20
-19
-18
-20
-24
-21
-21
-19
-25
-24
-22
-21
-24
-25
-22
-22
-25
-27
-23
-23
-25
-26
-24
-22
-22
-22
-16
-3
47
144
181
107
60
43
24
-1
-37
-87
-142
-200
-255
-304
-348
-394
-451
-501
-535
-559
-567
-596
-608
-608
-612
-612
-616
-615
-611
-605
-597
-576
-541
-496
-444
-375
-299
-227
-160
-100
-41
12
59
93
122
130
154
162
174
184
193
198
204
215
222
226
236
243
251
257
264
272
280
288
295
308
317
320
328
339
344
352
357
365
372
374
377
377
378
376
368
362
357
346
333
317
305
288
270
249
233
217
197
175
158
153
122
103
91
79
64
52
42
37
29
25
22
21
18
12
10
10
11
8
6
6
9
7
3
5
7
5
5
5
8
9
6
3
7
7
6
4
6
6
2
2
3
4
1
0
-1
0
-2
-5
-5
-5
-5
-10
-9
-10
-12
-13
-11
-12
-12
-15
-17
-14
-17
-18
-18
-17
-16
-19
-21
-19
-17
-20
-21
-21
-20
-23
-24
-24
-21
-20
-24
-23
-21
-20
-22
-23
-23
-21
-23
-25
-21
-22
-24
-26
-23
-23
-26
-28
-26
-25
-24
-26
-23
-21
-20
-22
-19
-14
-3
48
149
177
112
69
58
47
36
17
-16
-55
-112
-180
-251
-328
-350
-444
-486
-512
-533
-557
-580
-594
-597
-602
-609
-612
-611
-607
-609
-609
-603
-593
-577
-550
-509
-460
-398
-333
-265
-246
-139
-83
-31
15
54
90
123
146
159
167
179
191
198
206
214
224
233
238
246
255
263
270
276
289
294
310
319
330
341
350
356
364
375
383
386
391
396
396
395
393
392
385
372
361
351
338
318
299
282
277
244
224
210
195
178
160
148
133
117
101
88
75
66
54
42
38
30
21
15
14
16
10
8
12
12
11
4
6
8
7
6
6
9
9
7
7
10
10
7
8
9
12
9
8
10
10
8
5
6
5
5
2
1
3
1
-3
-4
-3
-3
-7
-10
-10
-8
-12
-13
-13
-12
-12
-16
-12
-12
-14
-17
-15
-14
-16
-18
-18
-16
-15
-19
-18
-17
-18
-21
-21
-19
-19
-21
-21
-21
-19
-20
-23
-21
-21
-22
-24
-22
-21
-21
-23
-22
-20
-19
-22
-21
-18
-18
-15
-4
44
144
177
110
75
67
53
42
29
3
-39
-94
-155
-175
-296
-364
-415
-457
-491
-518
-547
-571
-589
-599
-604
-608
-611
-617
-615
-611
-609
-602
-588
-561
-526
-484
-436
-366
-343
-234
-174
-114
-56
-11
26
68
102
123
136
151
162
172
178
186
198
205
209
217
227
237
244
250
260
264
280
288
300
313
320
329
337
349
356
361
370
376
381
381
382
387
384
377
369
362
350
335
318
303
298
265
242
227
210
190
169
156
143
128
113
103
96
83
69
58
50
44
36
27
23
19
14
9
8
7
8
8
10
11
10
9
8
11
11
10
10
10
12
11
8
11
14
12
8
11
12
9
7
6
7
5
1
1
4
1
-2
-1
-3
-4
-8
-10
-8
-8
-11
-14
-11
-11
-13
-15
-13
-12
-14
-20
-16
-15
-18
-20
-17
-18
-16
-18
-18
-17
-16
-20
-18
-18
-20
-20
-22
-19
-19
-21
-22
-19
-19
-21
-25
-20
-19
-21
-23
-22
-22
-22
-22
-23
-19
-19
-22
-18
-11
10
79
160
142
84
63
52
44
32
9
-24
-69
-84
-199
-270
-344
-405
-455
-494
-519
-540
-567
-591
-604
-607
-611
-620
-621
-623
-620
-621
-618
-609
-595
-574
-539
-500
-485
-382
-314
-247
-180
-119
-66
-17
27
68
103
131
148
160
173
182
195
203
207
217
226
236
244
248
261
265
277
285
299
308
319
326
337
348
356
364
372
382
390
394
397
403
405
402
398
400
394
385
376
366
362
338
318
303
287
267
247
231
213
195
174
159
144
129
112
101
91
82
70
60
53
47
38
31
29
30
23
18
17
17
14
11
10
10
9
6
6
10
10
6
6
10
10
8
5
9
9
9
6
9
12
13
14
16
18
17
16
17
17
17
14
14
16
11
8
4
6
2
-6
-9
-11
-15
-17
-20
-19
-18
-18
-16
-16
-16
-20
-19
-20
-17
-19
-21
-21
-21
-21
-22
-24
-23
-21
-26
-27
-25
-24
-26
-28
-26
-24
-26
-29
-30
-27
-26
-28
-27
-27
-26
-29
-30
-27
-27
-27
-28
-27
-24
-25
-28
-26
-23
-23
-25
-19
-16
39
130
166
112
71
57
44
38
25
-1
-39
-88
-156
-228
-303
-376
-435
-477
-507
-525
-542
-565
-585
-595
-597
-609
-617
-619
-616
-617
-616
-614
-602
-588
-568
-538
-499
-454
-402
-335
-267
-203
-142
-78
-21
23
62
97
130
139
164
173
186
197
206
214
226
238
248
255
265
280
291
298
308
323
335
345
354
366
377
383
389
401
405
410
413
417
422
421
416
412
409
401
388
378
365
353
335
319
307
289
267
246
229
213
194
173
159
155
129
116
105
97
86
74
65
61
54
47
41
39
35
28
25
23
21
17
15
15
14
12
10
10
9
9
7
6
7
7
5
5
8
7
5
6
9
8
8
6
8
8
7
5
8
9
7
5
7
7
5
4
3
5
4
1
1
2
1
-1
-3
-2
-1
-3
-6
-5
-6
-7
-10
-7
-8
-9
-13
-10
-9
-12
-14
-12
-10
-9
-11
-11
-6
-5
-7
-8
-1
-2
-5
-4
-2
-4
-8
-13
-12
-12
-17
-21
-22
-20
-27
-29
-31
-26
-25
-26
-22
-19
-20
-24
-19
-14
-5
25
120
183
123
79
67
60
53
42
26
1
-9
-92
-154
-213
-273
-326
-365
-396
-418
-449
-486
-518
-540
-555
-569
-580
-587
-594
-603
-607
-606
-604
-596
-582
-551
-540
-477
-426
-364
-297
-233
-177
-118
-63
-17
24
64
100
130
144
159
170
183
191
200
213
223
229
238
248
251
267
274
286
296
304
314
326
336
347
354
366
374
381
389
394
402
406
405
405
409
409
403
399
392
390
373
360
347
334
318
298
283
266
248
227
210
196
178
158
144
133
123
108
97
87
80
69
61
57
57
44
38
37
35
31
26
23
23
21
15
12
14
12
11
9
12
11
7
8
10
11
9
5
8
9
10
6
9
12
11
9
11
12
13
11
10
13
13
10
9
11
12
9
7
9
7
7
3
5
7
2
-1
2
2
0
-4
-3
-2
-3
-8
-7
-6
-6
-10
-10
-9
-9
-11
-13
-12
-11
-14
-15
-12
-12
-14
-15
-15
-12
-13
-15
-15
-14
-14
-17
-15
-15
-16
-18
-18
-14
-14
-14
-16
-12
-10
-11
-12
-6
-3
-2
-2
6
24
83
167
171
112
79
62
47
37
15
-18
-66
-120
-188
-253
-323
-384
-432
-476
-509
-534
-542
-585
-599
-603
-607
-612
-619
-618
-614
-614
-609
-595
-573
-545
-511
-468
-413
-345
-284
-221
-156
-92
-37
9
60
75
130
148
164
179
189
199
209
221
231
239
247
258
267
275
284
295
303
311
320
333
341
346
355
365
369
382
386
395
401
404
405
406
405
402
393
388
379
366
353
335
322
304
283
265
248
228
207
187
172
168
139
123
115
103
90
79
70
63
55
47
43
40
35
29
24
25
24
18
16
19
15
13
12
14
15
13
13
14
17
17
15
18
18
16
16
14
19
19
17
16
17
18
15
14
16
16
12
9
11
13
8
5
4
6
6
2
1
3
0
-2
-5
-4
-3
-7
-8
-6
-7
-9
-10
-8
-7
-13
-14
-14
-12
-14
-16
-16
-13
-14
-18
-17
-13
-15
-21
-18
-18
-17
-20
-19
-16
-14
-17
-17
-15
-13
-14
-16
-10
-8
-7
-8
-8
-10
-13
-17
-9
16
88
179
160
87
60
45
32
23
4
-33
-88
-155
-224
-296
-371
-429
-444
-510
-539
-566
-589
-602
-611
-614
-616
-618
-623
-620
-616
-613
-608
-590
-560
-522
-484
-427
-356
-283
-217
-153
-84
-63
22
67
108
136
153
164
179
188
198
206
217
225
236
242
251
263
271
277
286
299
306
315
325
336
340
352
359
368
377
382
384
391
396
395
392
388
385
377
364
352
340
324
305
287
270
248
226
206
192
187
153
135
123
112
95
82
72
67
57
45
40
36
30
24
21
19
20
14
14
13
13
10
6
10
12
8
6
8
11
10
8
9
12
10
9
10
12
14
9
11
15
13
11
10
11
11
8
6
7
8
5
2
5
3
3
-3
0
-1
-3
-6
-6
-5
-6
-8
-8
-7
-8
-11
-13
-13
-11
-14
-15
-13
-13
-14
-16
-16
-13
-15
-17
-17
-17
-18
-21
-18
-17
-15
-19
-18
-12
-16
-16
-16
-10
-8
-8
-7
-7
-6
-9
-12
-10
-4
13
91
180
145
83
60
50
45
35
16
-17
-65
-133
-204
-278
-345
-404
-451
-491
-518
-528
-578
-594
-599
-605
-609
-614
-614
-613
-614
-610
-599
-576
-547
-515
-477
-427
-368
-304
-241
-174
-115
-59
-9
37
50
111
136
154
167
176
184
197
205
215
220
230
240
248
255
262
275
284
291
302
311
322
328
336
348
352
362
369
377
384
387
388
395
396
397
392
390
385
377
366
352
345
330
313
296
280
260
240
222
205
201
170
149
138
125
109
95
87
76
69
58
53
49
42
37
31
31
26
21
18
17
18
15
15
16
17
16
14
16
18
15
14
14
17
16
15
16
20
21
16
16
20
21
18
17
18
19
16
14
17
18
16
14
13
14
11
7
7
7
5
3
3
6
2
0
-1
1
0
-3
-6
-4
-4
-8
-8
-5
-6
-8
-9
-8
-8
-9
-11
-11
-10
-10
-14
-13
-10
-11
-16
-14
-13
-12
-15
-14
-12
-14
-15
-17
-15
-15
-14
-18
-16
-14
-16
-16
-15
-14
-13
-12
-5
19
94
175
147
93
73
60
46
37
14
-22
-74
-137
-157
-277
-349
-403
-450
-494
-520
-546
-570
-591
-602
-609
-610
-614
-617
-619
-614
-611
-611
-604
-585
-560
-529
-485
-421
-399
-269
-200
-127
-66
-17
26
71
112
139
152
166
178
187
191
200
211
217
219
226
236
241
247
254
264
268
278
285
296
306
313
319
330
339
346
352
361
371
375
378
383
391
391
389
385
382
374
362
352
341
337
304
284
268
247
228
207
189
171
151
135
120
109
95
82
72
67
61
51
46
46
42
35
33
32
34
30
27
29
30
29
25
28
27
26
25
25
28
26
25
25
27
27
24
24
26
26
24
21
24
24
19
16
18
17
14
11
12
12
11
6
5
7
4
3
0
2
0
-2
-6
-4
-4
-7
-9
-7
-7
-7
-10
-9
-10
-12
-14
-14
-11
-13
-16
-15
-12
-14
-17
-17
-14
-16
-20
-20
-16
-17
-19
-19
-17
-17
-18
-20
-17
-16
-17
-21
-18
-20
-20
-20
-19
-15
-16
-17
-17
-11
-6
18
110
170
121
75
62
55
53
28
2
-36
-90
-156
-225
-298
-363
-418
-467
-503
-522
-549
-576
-593
-600
-605
-612
-615
-613
-612
-614
-614
-607
-605
-585
-555
-514
-464
-399
-328
-254
-184
-117
-54
3
49
94
128
152
168
175
182
188
198
204
206
210
217
221
229
236
248
256
260
265
274
283
287
295
305
314
321
328
337
347
350
352
361
369
372
374
373
376
376
366
358
351
340
326
309
297
281
263
241
222
206
186
167
151
137
121
104
93
83
74
63
55
50
48
41
36
34
35
32
27
26
27
25
23
25
27
27
22
22
26
24
24
23
23
24
24
21
24
25
23
23
25
23
21
19
18
21
17
13
13
14
13
10
9
10
7
3
3
5
4
-1
-3
0
2
-2
-4
-2
-3
-4
-10
-5
-8
-7
-9
-10
-7
-7
-11
-13
-8
-9
-11
-12
-11
-11
-14
-14
-12
-11
-13
-14
-11
-11
-12
-13
-14
-12
-13
-15
-15
-12
-12
-14
-15
-13
-12
-14
-15
-13
-10
-14
-13
-7
-4
54
155
178
120
83
70
62
58
47
29
2
-40
-102
-172
-243
-313
-377
-432
-473
-500
-531
-563
-585
-594
-597
-607
-612
-612
-611
-610
-613
-604
-594
-580
-549
-510
-457
-394
-326
-256
-189
-126
-67
-17
30
71
108
135
155
161
175
184
196
204
210
216
225
233
238
244
254
265
270
280
290
301
308
319
327
340
346
353
360
370
372
376
382
386
389
390
388
387
386
381
375
372
364
351
334
320
306
287
270
251
237
219
198
179
165
160
131
117
106
94
83
72
66
61
53
45
41
40
35
29
29
29
26
24
21
24
24
25
22
23
24
24
22
22
25
23
22
24
26
25
22
24
26
24
22
21
23
23
20
19
18
19
16
13
16
17
9
9
8
9
3
2
3
3
1
-3
-1
0
-3
-3
-5
-4
-6
-9
-8
-7
-9
-10
-12
-10
-9
-13
-14
-13
-12
-14
-16
-16
-13
-15
-19
-16
-15
-16
-20
-19
-16
-18
-22
-21
-18
-17
-20
-20
-18
-15
-19
-21
-21
-18
-22
-24
-22
-18
-17
-20
-17
-12
1
44
150
195
124
73
55
39
18
-16
-61
-110
-126
-234
-285
-322
-366
-422
-482
-526
-552
-578
-600
-607
-611
-617
-622
-621
-616
-616
-611
-599
-576
-542
-502
-449
-379
-358
-232
-163
-98
-40
11
58
98
126
140
153
164
177
186
190
199
210
215
219
226
234
241
246
251
261
263
276
280
291
299
306
313
323
332
337
347
355
361
363
365
370
377
375
372
368
366
360
351
342
333
330
306
290
275
259
241
221
205
191
173
155
141
126
110
94
81
72
59
48
40
36
30
22
20
22
23
17
13
15
15
13
11
12
13
13
10
11
15
11
10
11
14
12
12
9
11
11
9
7
10
10
7
6
5
5
4
2
1
2
-1
-3
-4
-2
-6
-8
-9
-6
-10
-12
-14
-12
-11
-15
-15
-16
-15
-20
-20
-16
-17
-17
-21
-20
-17
-18
-22
-21
-19
-22
-23
-21
-20
-19
-23
-23
-21
-20
-25
-26
-22
-20
-23
-25
-22
-22
-22
-25
-23
-21
-22
-26
-25
-24
-23
-26
-26
-22
-23
-25
-25
-23
-22
-23
-23
-10
-5
118
189
136
84
64
51
39
25
0
-43
-99
-169
-244
-320
-391
-441
-482
-516
-537
-561
-583
-602
-608
-611
-612
-618
-623
-620
-618
-618
-613
-598
-578
-549
-512
-462
-404
-339
-278
-216
-152
-90
-38
10
54
93
121
140
157
162
175
182
194
203
210
216
224
233
236
243
251
261
267
275
284
295
302
309
319
329
337
342
349
361
365
369
376
382
386
388
387
390
387
382
373
368
361
349
335
322
310
292
276
256
241
222
204
187
171
167
139
124
113
104
93
82
77
71
60
52
45
41
33
27
22
19
13
7
4
5
4
1
2
8
11
6
3
6
7
4
2
5
8
7
6
6
9
9
7
6
8
8
6
4
6
5
1
-2
2
2
-2
-3
-3
-5
-6
-9
-10
-8
-10
-14
-13
-12
-14
-16
-17
-14
-15
-17
-18
-15
-15
-19
-20
-17
-16
-18
-19
-20
-18
-20
-22
-20
-19
-22
-22
-21
-19
-21
-22
-22
-19
-22
-22
-23
-19
-22
-25
-26
-21
-21
-24
-25
-23
-20
-21
-23
-22
-20
-16
7
78
173
162
93
68
61
49
34
11
-23
-84
-158
-235
-315
-338
-437
-481
-509
-534
-566
-591
-603
-608
-616
-622
-623
-621
-623
-624
-615
-604
-583
-554
-512
-465
-404
-336
-268
-199
-178
-76
-24
26
70
108
132
151
165
173
184
194
206
211
219
229
240
247
254
263
274
283
293
301
313
316
333
341
353
363
368
377
387
394
394
397
399
402
397
390
383
377
365
350
335
321
304
281
261
243
235
203
183
166
149
128
113
100
90
76
65
59
53
43
37
32
30
25
19
17
18
17
14
13
15
16
11
12
12
14
12
13
16
17
14
13
13
15
14
11
11
15
13
11
8
11
10
11
7
13
15
13
13
14
14
12
9
9
9
6
-1
-3
-3
-10
-13
-16
-16
-20
-22
-24
-19
-16
-17
-20
-18
-17
-21
-23
-20
-20
-22
-23
-22
-20
-22
-22
-22
-20
-23
-25
-25
-23
-23
-25
-25
-23
-24
-26
-24
-23
-23
-24
-24
-22
-21
-22
-23
-19
-5
40
152
181
107
67
56
46
42
27
-1
-47
-108
-182
-261
-340
-406
-424
-494
-521
-544
-575
-596
-607
-614
-621
-627
-631
-631
-627
-619
-606
-577
-541
-502
-457
-392
-319
-249
-186
-113
-49
-30
47
88
126
151
166
177
190
204
214
225
238
250
259
267
280
294
302
311
326
339
349
358
369
382
387
399
407
415
421
422
424
425
425
419
410
403
393
377
360
342
326
306
282
263
249
225
206
191
176
172
139
123
112
101
88
77
67
62
52
44
40
36
30
24
21
20
16
12
9
10
8
7
6
7
9
5
4
6
6
3
4
4
7
8
4
4
7
5
3
4
7
3
4
1
4
0
0
0
0
1
-2
-5
-3
-4
-7
-10
-9
-8
-11
-13
-15
-13
-15
-18
-19
-16
-18
-20
-20
-20
-21
-22
-24
-20
-18
-23
-24
-22
-18
-17
-17
-13
-12
-14
-15
-15
-13
-13
-18
-18
-19
-20
-23
-27
-26
-30
-35
-36
-35
-34
-37
-33
-22
-12
45
149
163
88
52
43
33
21
0
-35
-86
-145
-214
-285
-353
-398
-433
-460
-486
-519
-528
-570
-583
-588
-598
-607
-613
-611
-612
-614
-609
-595
-570
-539
-502
-451
-389
-319
-253
-190
-125
-70
-23
20
59
70
118
134
150
162
171
178
190
201
208
216
225
236
245
251
261
273
282
287
302
314
322
330
341
353
357
367
374
382
388
391
391
393
395
391
383
377
371
357
341
329
317
296
278
259
245
226
207
190
176
172
145
128
118
104
91
78
68
64
54
43
40
36
29
23
18
19
15
9
7
9
5
0
0
-1
-1
-3
-2
-2
-1
-3
-5
-3
-1
-4
-5
-3
0
-2
-3
-2
-1
0
-2
-3
1
-1
-4
-3
-2
-1
-4
-5
-3
-3
-7
-7
-7
-6
-8
-9
-11
-8
-9
-13
-14
-12
-14
-17
-17
-16
-17
-21
-22
-19
-20
-20
-23
-20
-21
-24
-26
-23
-23
-24
-26
-27
-21
-24
-27
-26
-23
-25
-27
-27
-23
-25
-26
-28
-25
-24
-27
-28
-25
-25
-29
-29
-24
-22
-26
-25
-22
-15
-4
40
141
188
126
78
66
56
45
31
6
-30
-44
-163
-237
-315
-391
-451
-497
-523
-546
-579
-603
-611
-614
-621
-626
-628
-624
-625
-625
-618
-603
-578
-548
-512
-473
-459
-361
-296
-232
-172
-114
-61
-9
33
76
108
135
151
162
173
182
196
202
209
218
232
238
244
251
264
268
279
287
302
310
319
327
338
348
353
360
368
378
382
383
389
394
394
392
391
389
381
370
363
352
346
320
304
290
274
252
233
219
201
181
165
149
137
121
104
93
84
72
60
53
48
41
33
32
27
26
20
16
15
13
13
9
11
9
7
7
7
9
8
7
7
9
9
5
7
9
8
6
6
8
9
4
2
6
4
3
0
2
2
-1
-5
-3
0
-3
-8
-7
-7
-10
-12
-13
-10
-11
-15
-19
-14
-15
-18
-20
-18
-19
-23
-25
-22
-21
-22
-27
-25
-21
-25
-30
-27
-26
-26
-29
-30
-27
-26
-30
-31
-28
-26
-29
-31
-31
-27
-31
-33
-30
-29
-30
-33
-31
-30
-30
-32
-31
-29
-29
-31
-31
-28
-28
-24
-7
58
87
168
100
65
50
35
24
9
-18
-66
-135
-209
-283
-363
-429
-477
-518
-543
-568
-593
-607
-617
-628
-628
-631
-630
-635
-634
-631
-627
-625
-614
-591
-560
-525
-478
-415
-346
-277
-208
-140
-77
-25
21
66
110
136
150
162
174
179
188
196
206
216
220
226
233
243
247
253
261
269
276
283
291
304
310
321
329
341
350
356
363
373
376
382
384
391
392
389
385
380
372
359
343
331
315
293
271
251
232
212
190
172
155
136
121
107
94
89
71
62
55
47
38
33
29
27
24
19
19
17
17
14
14
15
14
11
12
14
17
12
15
15
14
13
10
12
12
8
8
9
8
9
5
6
5
4
1
1
1
-1
-5
-5
-2
-6
-7
-8
-7
-6
-11
-13
-13
-12
-15
-16
-16
-16
-17
-21
-18
-17
-20
-24
-22
-19
-21
-24
-25
-21
-24
-27
-26
-24
-25
-29
-29
-26
-26
-27
-29
-29
-27
-29
-31
-30
-28
-30
-34
-29
-27
-29
-33
-31
-27
-31
-33
-34
-30
-28
-32
-34
-31
-29
-30
-28
-16
27
123
182
127
73
57
42
30
20
-7
-51
-109
-173
-247
-330
-398
-452
-468
-532
-555
-578
-600
-615
-620
-624
-626
-629
-634
-630
-627
-627
-623
-609
-583
-556
-520
-459
-386
-312
-244
-173
-108
-89
-2
42
85
117
136
151
166
178
187
193
203
214
220
223
233
241
244
247
255
261
264
270
277
285
287
297
303
316
327
332
336
346
355
357
361
367
372
371
368
366
367
358
350
342
332
322
303
291
278
273
243
227
211
194
175
158
144
127
113
96
85
76
65
56
47
43
36
30
27
25
21
16
13
14
13
9
7
9
9
8
7
8
10
7
6
8
11
10
8
10
11
11
8
7
12
10
6
6
8
8
6
4
8
5
2
0
2
3
1
-3
-4
-4
-6
-11
-9
-7
-9
-15
-12
-13
-13
-15
-16
-15
-15
-19
-20
-17
-20
-22
-24
-22
-23
-23
-26
-24
-22
-25
-27
-26
-24
-25
-28
-27
-25
-27
-27
-29
-27
-27
-30
-31
-29
-27
-29
-31
-28
-26
-28
-29
-28
-28
-30
-31
-29
-27
-28
-28
-21
-8
45
153
190
117
93
54
41
32
14
-17
-64
-122
-193
-269
-345
-408
-458
-502
-534
-562
-591
-607
-620
-623
-624
-627
-631
-631
-629
-628
-620
-602
-572
-536
-490
-427
-352
-280
-212
-144
-77
-23
23
68
106
135
147
157
171
183
190
197
205
216
220
229
238
247
253
258
265
274
283
291
296
307
316
324
329
339
349
358
363
372
381
385
387
390
396
397
392
389
388
384
370
362
350
340
322
304
286
266
244
220
201
183
160
136
122
107
90
74
66
59
56
44
37
33
28
21
16
18
14
8
6
8
7
4
2
2
5
3
0
1
4
2
2
2
4
5
2
2
5
5
2
1
4
5
2
-1
0
2
-1
-4
-4
-2
-3
-6
-8
-7
-9
-13
-14
-12
-11
-16
-18
-17
-16
-19
-21
-22
-21
-22
-24
-26
-23
-24
-27
-26
-24
-24
-27
-27
-25
-27
-30
-29
-28
-27
-28
-28
-27
-27
-29
-30
-30
-29
-31
-31
-30
-31
-31
-33
-30
-30
-28
-32
-31
-28
-30
-35
-35
-31
-28
-32
-30
-21
6
99
178
135
73
53
40
30
18
-6
-53
-107
-174
-249
-331
-405
-458
-503
-541
-563
-587
-595
-624
-630
-632
-635
-638
-640
-635
-632
-631
-626
-610
-577
-545
-497
-430
-357
-286
-219
-149
-83
-31
14
56
99
110
140
153
168
177
184
194
204
212
216
223
234
241
246
254
263
273
278
285
295
307
314
322
333
342
346
356
364
374
380
382
385
391
393
391
388
386
381
372
362
353
341
324
305
291
273
255
232
216
195
190
157
142
130
116
98
83
75
65
53
43
40
36
26
19
18
15
14
9
8
7
7
2
1
3
4
3
4
6
8
8
8
11
16
13
10
15
13
12
9
8
7
5
-1
-2
-3
-8
-13
-13
-16
-15
-18
-16
-11
-13
-19
-19
-18
-18
-19
-24
-20
-22
-25
-28
-27
-25
-27
-32
-29
-27
-29
-34
-34
-31
-32
-34
-36
-33
-32
-35
-36
-34
-34
-35
-39
-34
-33
-37
-39
-36
-32
-34
-37
-36
-34
-34
-36
-36
-34
-33
-34
-36
-35
-33
-35
-35
-31
-26
-10
64
173
157
81
51
43
31
14
-15
-57
-113
-187
-264
-342
-413
-433
-513
-541
-559
-579
-607
-620
-624
-629
-637
-638
-636
-634
-633
-626
-606
-580
-545
-505
-452
-388
-318
-256
-189
-122
-103
-19
25
69
103
124
140
155
167
176
185
198
208
218
224
237
248
258
267
279
293
302
312
323
336
339
354
365
374
380
388
392
401
405
404
403
401
398
389
375
366
353
337
319
302
287
267
246
226
211
206
174
159
147
133
114
102
92
81
70
58
53
48
38
30
27
25
19
13
11
9
6
0
-1
0
0
-3
-6
-3
-3
-5
-7
-4
-6
-8
-7
-5
-6
-7
-9
-8
-5
-5
-8
-6
-6
-8
-8
-8
-7
-4
-10
-11
-9
-8
-15
-16
-13
-12
-15
-18
-17
-15
-15
-15
-14
-9
-11
-13
-13
-11
-13
-14
-13
-11
-12
-21
-25
-26
-25
-32
-34
-31
-36
-40
-43
-37
-33
-31
-33
-33
-32
-33
-36
-33
-32
-33
-35
-34
-33
-32
-33
-33
-31
-30
-32
-30
-24
-8
47
156
165
90
58
52
48
41
23
-9
-57
-120
-186
-258
-327
-378
-393
-458
-488
-523
-560
-583
-596
-606
-616
-623
-627
-627
-623
-619
-606
-578
-543
-503
-458
-390
-313
-239
-170
-98
-36
-17
57
99
132
149
161
175
186
198
207
217
229
241
250
259
272
283
293
301
314
325
336
345
356
366
370
386
394
404
